# Pulseq sequence file
# Created by PyPulseq

[VERSION]
major 1
minor 4
revision 0

[DEFINITIONS]
AdcRasterTime 1e-07 
Bandwidth 499 Hz/px 
BlockDurationRaster 1e-05 
FOV 0.2 0.2 0.01 
GradientRasterTime 1e-05 
RadiofrequencyRasterTime 1e-06 
TotalDuration 30.53414 

# Format of blocks:
# NUM DUR RF  GX  GY  GZ  ADC  EXT
[BLOCKS]
   1 499908   0   0   0   0  0  0
   2  32   0   0   0   1  0  0
   3 115   1   0   0   2  0  0
   4  32   0   0   0   1  0  0
   5   3   0   0   0   0  0  0
   6 122   0   3   4   0  0  0
   7 216   0   5   0   0  1  0
   8  79   0   6   7   0  0  0
   9   1   0   0   0   0  0  0
  10  32   0   0   0   1  0  0
  11 115   2   0   0   2  0  0
  12  32   0   0   0   1  0  0
  13   3   0   0   0   0  0  0
  14 122   0   3   8   0  0  0
  15 216   0   5   0   0  2  0
  16  79   0   6   9   0  0  0
  17   1   0   0   0   0  0  0
  18  32   0   0   0   1  0  0
  19 115   3   0   0   2  0  0
  20  32   0   0   0   1  0  0
  21   3   0   0   0   0  0  0
  22 122   0   3  10   0  0  0
  23 216   0   5   0   0  3  0
  24  79   0   6  11   0  0  0
  25   1   0   0   0   0  0  0
  26  32   0   0   0   1  0  0
  27 115   4   0   0   2  0  0
  28  32   0   0   0   1  0  0
  29   3   0   0   0   0  0  0
  30 122   0   3  12   0  0  0
  31 216   0   5   0   0  4  0
  32  79   0   6  13   0  0  0
  33   1   0   0   0   0  0  0
  34  32   0   0   0   1  0  0
  35 115   5   0   0   2  0  0
  36  32   0   0   0   1  0  0
  37   3   0   0   0   0  0  0
  38 122   0   3  14   0  0  0
  39 216   0   5   0   0  5  0
  40  79   0   6  15   0  0  0
  41   1   0   0   0   0  0  0
  42  32   0   0   0   1  0  0
  43 115   6   0   0   2  0  0
  44  32   0   0   0   1  0  0
  45   3   0   0   0   0  0  0
  46 122   0   3  16   0  0  0
  47 216   0   5   0   0  6  0
  48  79   0   6  17   0  0  0
  49   1   0   0   0   0  0  0
  50  32   0   0   0   1  0  0
  51 115   7   0   0   2  0  0
  52  32   0   0   0   1  0  0
  53   3   0   0   0   0  0  0
  54 122   0   3  18   0  0  0
  55 216   0   5   0   0  7  0
  56  79   0   6  19   0  0  0
  57   1   0   0   0   0  0  0
  58  32   0   0   0   1  0  0
  59 115   8   0   0   2  0  0
  60  32   0   0   0   1  0  0
  61   3   0   0   0   0  0  0
  62 122   0   3  20   0  0  0
  63 216   0   5   0   0  8  0
  64  79   0   6  21   0  0  0
  65   1   0   0   0   0  0  0
  66  32   0   0   0   1  0  0
  67 115   9   0   0   2  0  0
  68  32   0   0   0   1  0  0
  69   3   0   0   0   0  0  0
  70 122   0   3  22   0  0  0
  71 216   0   5   0   0  9  0
  72  79   0   6  23   0  0  0
  73   1   0   0   0   0  0  0
  74  32   0   0   0   1  0  0
  75 115  10   0   0   2  0  0
  76  32   0   0   0   1  0  0
  77   3   0   0   0   0  0  0
  78 122   0   3  24   0  0  0
  79 216   0   5   0   0 10  0
  80  79   0   6  25   0  0  0
  81   1   0   0   0   0  0  0
  82  32   0   0   0   1  0  0
  83 115  11   0   0   2  0  0
  84  32   0   0   0   1  0  0
  85   3   0   0   0   0  0  0
  86 122   0   3  26   0  0  0
  87 216   0   5   0   0 11  0
  88  79   0   6  27   0  0  0
  89   1   0   0   0   0  0  0
  90  32   0   0   0   1  0  0
  91 115  12   0   0   2  0  0
  92  32   0   0   0   1  0  0
  93   3   0   0   0   0  0  0
  94 122   0   3  28   0  0  0
  95 216   0   5   0   0 12  0
  96  79   0   6  29   0  0  0
  97   1   0   0   0   0  0  0
  98  32   0   0   0   1  0  0
  99 115  13   0   0   2  0  0
 100  32   0   0   0   1  0  0
 101   3   0   0   0   0  0  0
 102 122   0   3  30   0  0  0
 103 216   0   5   0   0 13  0
 104  79   0   6  31   0  0  0
 105   1   0   0   0   0  0  0
 106  32   0   0   0   1  0  0
 107 115  14   0   0   2  0  0
 108  32   0   0   0   1  0  0
 109   3   0   0   0   0  0  0
 110 122   0   3  32   0  0  0
 111 216   0   5   0   0 14  0
 112  79   0   6  33   0  0  0
 113   1   0   0   0   0  0  0
 114  32   0   0   0   1  0  0
 115 115  15   0   0   2  0  0
 116  32   0   0   0   1  0  0
 117   3   0   0   0   0  0  0
 118 122   0   3  34   0  0  0
 119 216   0   5   0   0 15  0
 120  79   0   6  35   0  0  0
 121   1   0   0   0   0  0  0
 122  32   0   0   0   1  0  0
 123 115  16   0   0   2  0  0
 124  32   0   0   0   1  0  0
 125   3   0   0   0   0  0  0
 126 122   0   3  36   0  0  0
 127 216   0   5   0   0 16  0
 128  79   0   6  37   0  0  0
 129   1   0   0   0   0  0  0
 130  32   0   0   0   1  0  0
 131 115  17   0   0   2  0  0
 132  32   0   0   0   1  0  0
 133   3   0   0   0   0  0  0
 134 122   0   3  38   0  0  0
 135 216   0   5   0   0 17  0
 136  79   0   6  39   0  0  0
 137   1   0   0   0   0  0  0
 138  32   0   0   0   1  0  0
 139 115  18   0   0   2  0  0
 140  32   0   0   0   1  0  0
 141   3   0   0   0   0  0  0
 142 122   0   3  40   0  0  0
 143 216   0   5   0   0 18  0
 144  79   0   6  41   0  0  0
 145   1   0   0   0   0  0  0
 146  32   0   0   0   1  0  0
 147 115  19   0   0   2  0  0
 148  32   0   0   0   1  0  0
 149   3   0   0   0   0  0  0
 150 122   0   3  42   0  0  0
 151 216   0   5   0   0 19  0
 152  79   0   6  43   0  0  0
 153   1   0   0   0   0  0  0
 154  32   0   0   0   1  0  0
 155 115  20   0   0   2  0  0
 156  32   0   0   0   1  0  0
 157   3   0   0   0   0  0  0
 158 122   0   3  44   0  0  0
 159 216   0   5   0   0 20  0
 160  79   0   6  45   0  0  0
 161   1   0   0   0   0  0  0
 162  32   0   0   0   1  0  0
 163 115  21   0   0   2  0  0
 164  32   0   0   0   1  0  0
 165   3   0   0   0   0  0  0
 166 122   0   3  46   0  0  0
 167 216   0   5   0   0 21  0
 168  79   0   6  47   0  0  0
 169   1   0   0   0   0  0  0
 170  32   0   0   0   1  0  0
 171 115  22   0   0   2  0  0
 172  32   0   0   0   1  0  0
 173   3   0   0   0   0  0  0
 174 122   0   3  48   0  0  0
 175 216   0   5   0   0 22  0
 176  79   0   6  49   0  0  0
 177   1   0   0   0   0  0  0
 178  32   0   0   0   1  0  0
 179 115  23   0   0   2  0  0
 180  32   0   0   0   1  0  0
 181   3   0   0   0   0  0  0
 182 122   0   3  50   0  0  0
 183 216   0   5   0   0 23  0
 184  79   0   6  51   0  0  0
 185   1   0   0   0   0  0  0
 186  32   0   0   0   1  0  0
 187 115  24   0   0   2  0  0
 188  32   0   0   0   1  0  0
 189   3   0   0   0   0  0  0
 190 122   0   3  52   0  0  0
 191 216   0   5   0   0 24  0
 192  79   0   6  53   0  0  0
 193   1   0   0   0   0  0  0
 194  32   0   0   0   1  0  0
 195 115  25   0   0   2  0  0
 196  32   0   0   0   1  0  0
 197   3   0   0   0   0  0  0
 198 122   0   3  54   0  0  0
 199 216   0   5   0   0 25  0
 200  79   0   6  55   0  0  0
 201   1   0   0   0   0  0  0
 202  32   0   0   0   1  0  0
 203 115  26   0   0   2  0  0
 204  32   0   0   0   1  0  0
 205   3   0   0   0   0  0  0
 206 122   0   3  56   0  0  0
 207 216   0   5   0   0 26  0
 208  79   0   6  57   0  0  0
 209   1   0   0   0   0  0  0
 210  32   0   0   0   1  0  0
 211 115  27   0   0   2  0  0
 212  32   0   0   0   1  0  0
 213   3   0   0   0   0  0  0
 214 122   0   3  58   0  0  0
 215 216   0   5   0   0 27  0
 216  79   0   6  59   0  0  0
 217   1   0   0   0   0  0  0
 218  32   0   0   0   1  0  0
 219 115  28   0   0   2  0  0
 220  32   0   0   0   1  0  0
 221   3   0   0   0   0  0  0
 222 122   0   3  60   0  0  0
 223 216   0   5   0   0 28  0
 224  79   0   6  61   0  0  0
 225   1   0   0   0   0  0  0
 226  32   0   0   0   1  0  0
 227 115  29   0   0   2  0  0
 228  32   0   0   0   1  0  0
 229   3   0   0   0   0  0  0
 230 122   0   3  62   0  0  0
 231 216   0   5   0   0 29  0
 232  79   0   6  63   0  0  0
 233   1   0   0   0   0  0  0
 234  32   0   0   0   1  0  0
 235 115  30   0   0   2  0  0
 236  32   0   0   0   1  0  0
 237   3   0   0   0   0  0  0
 238 122   0   3  64   0  0  0
 239 216   0   5   0   0 30  0
 240  79   0   6  65   0  0  0
 241   1   0   0   0   0  0  0
 242  32   0   0   0   1  0  0
 243 115  31   0   0   2  0  0
 244  32   0   0   0   1  0  0
 245   3   0   0   0   0  0  0
 246 122   0   3  66   0  0  0
 247 216   0   5   0   0 31  0
 248  79   0   6  67   0  0  0
 249   1   0   0   0   0  0  0
 250  32   0   0   0   1  0  0
 251 115  32   0   0   2  0  0
 252  32   0   0   0   1  0  0
 253   3   0   0   0   0  0  0
 254 122   0   3  68   0  0  0
 255 216   0   5   0   0 32  0
 256  79   0   6  69   0  0  0
 257   1   0   0   0   0  0  0
 258  32   0   0   0   1  0  0
 259 115  33   0   0   2  0  0
 260  32   0   0   0   1  0  0
 261   3   0   0   0   0  0  0
 262 122   0   3  70   0  0  0
 263 216   0   5   0   0 33  0
 264  79   0   6  71   0  0  0
 265   1   0   0   0   0  0  0
 266  32   0   0   0   1  0  0
 267 115  34   0   0   2  0  0
 268  32   0   0   0   1  0  0
 269   3   0   0   0   0  0  0
 270 122   0   3  72   0  0  0
 271 216   0   5   0   0 34  0
 272  79   0   6  73   0  0  0
 273   1   0   0   0   0  0  0
 274  32   0   0   0   1  0  0
 275 115  35   0   0   2  0  0
 276  32   0   0   0   1  0  0
 277   3   0   0   0   0  0  0
 278 122   0   3  74   0  0  0
 279 216   0   5   0   0 35  0
 280  79   0   6  75   0  0  0
 281   1   0   0   0   0  0  0
 282  32   0   0   0   1  0  0
 283 115  36   0   0   2  0  0
 284  32   0   0   0   1  0  0
 285   3   0   0   0   0  0  0
 286 122   0   3  76   0  0  0
 287 216   0   5   0   0 36  0
 288  79   0   6  77   0  0  0
 289   1   0   0   0   0  0  0
 290  32   0   0   0   1  0  0
 291 115  37   0   0   2  0  0
 292  32   0   0   0   1  0  0
 293   3   0   0   0   0  0  0
 294 122   0   3  78   0  0  0
 295 216   0   5   0   0 37  0
 296  79   0   6  79   0  0  0
 297   1   0   0   0   0  0  0
 298  32   0   0   0   1  0  0
 299 115  38   0   0   2  0  0
 300  32   0   0   0   1  0  0
 301   3   0   0   0   0  0  0
 302 122   0   3  80   0  0  0
 303 216   0   5   0   0 38  0
 304  79   0   6  81   0  0  0
 305   1   0   0   0   0  0  0
 306  32   0   0   0   1  0  0
 307 115  39   0   0   2  0  0
 308  32   0   0   0   1  0  0
 309   3   0   0   0   0  0  0
 310 122   0   3  82   0  0  0
 311 216   0   5   0   0 39  0
[RF]
1      214.212 1 2 0 100 0 -0.108793
2      214.776 3 2 0 100 0 1.59061
3      212.805 4 2 0 100 0 1.32768
4      208.508 5 2 0 100 0 -1.28816
5      214.678 6 2 0 100 0 0.370802
6       205.66 7 2 0 100 0 -1.83423
7      214.159 8 2 0 100 0 -2.12669
8      204.244 9 2 0 100 0 2.1812
9      198.752 10 2 0 100 0 -0.245239
10      216.561 11 2 0 100 0 -2.39781
11      196.965 12 2 0 100 0 -1.63332
12       201.87 13 2 0 100 0 -0.434588
13      190.157 14 2 0 100 0 -0.3519
14      205.013 15 2 0 100 0 -0.0320682
15      200.235 16 2 0 100 0 1.87684
16      191.478 17 2 0 100 0 -1.14891
17      213.164 18 2 0 100 0 0.436968
18      197.813 19 2 0 100 0 -1.18162
19      204.336 20 2 0 100 0 -2.3503
20      203.898 21 2 0 100 0 -1.76631
21      197.613 22 2 0 100 0 2.94241
22      187.526 23 2 0 100 0 0.115763
23      191.859 24 2 0 100 0 1.71972
24      194.831 25 2 0 100 0 2.39824
25      204.389 26 2 0 100 0 -1.5513
26      191.627 27 2 0 100 0 2.79597
27      201.728 28 2 0 100 0 0.273975
28      213.171 29 2 0 100 0 -1.20298
29      209.449 30 2 0 100 0 -1.15236
30      213.286 31 2 0 100 0 1.25742
31      228.287 32 2 0 100 0 -2.27093
32      196.915 33 2 0 100 0 -0.665794
33      201.129 34 2 0 100 0 -0.492104
34      184.917 35 2 0 100 0 0.619096
35      169.978 36 2 0 100 0 -1.12061
36      222.296 37 2 0 100 0 0.764063
37      199.186 38 2 0 100 0 -1.50992
38      206.196 39 2 0 100 0 1.39786
39      208.729 40 2 0 100 0 -2.15899
40       204.43 41 2 0 100 0 -2.30814
41      180.258 42 2 0 100 0 2.49275
42      241.962 43 2 0 100 0 -1.62071
43      181.611 44 2 0 100 0 -0.973681
44      194.498 45 2 0 100 0 1.89978
45      198.638 46 2 0 100 0 1.41004
46       173.12 47 2 0 100 0 0.429696
47      203.171 48 2 0 100 0 -1.10847
48      208.556 49 2 0 100 0 -1.31545
49       226.43 50 2 0 100 0 -0.497159
50      193.984 51 2 0 100 0 2.47825
51      248.488 52 2 0 100 0 -0.540332
52      171.442 53 2 0 100 0 -0.109116
53      191.081 54 2 0 100 0 -0.133452
54      179.668 55 2 0 100 0 -0.31677
55      205.135 56 2 0 100 0 -3.04891
56       218.34 57 2 0 100 0 -0.244225
57      210.777 58 2 0 100 0 -1.88671
58      188.139 59 2 0 100 0 2.15098
59      185.862 60 2 0 100 0 1.59858
60      226.729 61 2 0 100 0 0.755216
61      209.999 62 2 0 100 0 -2.3354
62      192.155 63 2 0 100 0 2.37145
63      200.895 64 2 0 100 0 -1.68038
64      207.302 65 2 0 100 0 -0.455293
65      236.942 66 2 0 100 0 0.805742
66      249.719 67 2 0 100 0 -1.40291
67      211.181 68 2 0 100 0 -0.61179
68      231.882 69 2 0 100 0 0.711836
69      197.932 70 2 0 100 0 1.02245
70      227.809 71 2 0 100 0 0.454072
71      214.978 72 2 0 100 0 -0.779561
72      209.088 73 2 0 100 0 -2.28177
73      186.355 74 2 0 100 0 -1.3496
74      210.913 75 2 0 100 0 -3.69256
75      227.111 76 2 0 100 0 0.277299
76      224.425 77 2 0 100 0 2.88833
77      205.097 78 2 0 100 0 -3.12703
78      209.647 79 2 0 100 0 0.454928
79      196.976 80 2 0 100 0 -1.96731
80      210.479 81 2 0 100 0 -0.109576
81      184.825 82 2 0 100 0 1.58446
82      224.114 83 2 0 100 0 -0.226581
83      227.649 84 2 0 100 0 -0.136782
84      234.585 85 2 0 100 0 0.897337
85      190.402 86 2 0 100 0 2.54242
86      214.233 87 2 0 100 0 -0.190696
87      174.624 88 2 0 100 0 -1.16036
88      265.856 89 2 0 100 0 -1.98594
89      202.912 90 2 0 100 0 -1.47468
90      189.747 91 2 0 100 0 1.1721
91      213.938 92 2 0 100 0 -2.05687
92      209.284 93 2 0 100 0 0.917605
93      196.313 94 2 0 100 0 -0.753802
94      212.525 95 2 0 100 0 0.866118
95      197.157 96 2 0 100 0 0.803052
96      185.955 97 2 0 100 0 -2.27913
97      195.549 98 2 0 100 0 -2.4677
98      201.675 99 2 0 100 0 -0.760428
99      211.212 100 2 0 100 0 0.398855
100      201.007 101 2 0 100 0 1.95158
101      210.188 102 2 0 100 0 -0.0635587
102      212.066 103 2 0 100 0 0.752348
103      231.222 104 2 0 100 0 -1.69842
104      200.433 105 2 0 100 0 -3.73817
105       214.22 106 2 0 100 0 0.214759
106      192.832 107 2 0 100 0 0.0763476
107      185.268 108 2 0 100 0 1.29921
108      233.173 109 2 0 100 0 -1.3216
109      196.845 110 2 0 100 0 -1.90841
110      206.991 111 2 0 100 0 3.59856
111      196.687 112 2 0 100 0 -1.61498
112      211.036 113 2 0 100 0 -1.18558
113      242.376 114 2 0 100 0 0.414734
114      194.598 115 2 0 100 0 -1.88221
115      216.382 116 2 0 100 0 1.19736
116      190.284 117 2 0 100 0 -0.632517
117      201.851 118 2 0 100 0 -0.0143138
118      215.081 119 2 0 100 0 3.19517
119      238.443 120 2 0 100 0 -2.90117
120      224.193 121 2 0 100 0 -0.668876
121      226.619 122 2 0 100 0 0.31016
122      239.595 123 2 0 100 0 -0.4928
123      221.388 124 2 0 100 0 2.29889
124      208.541 125 2 0 100 0 0.475541
125      192.986 126 2 0 100 0 -0.501217
126      206.689 127 2 0 100 0 1.30513
127      201.926 128 2 0 100 0 -0.129533
128      223.355 129 2 0 100 0 0.825069
129      214.212 1 2 0 100 0 -0.108793
130      214.776 3 2 0 100 0 1.59061
131      212.805 4 2 0 100 0 1.32768
132      208.508 5 2 0 100 0 -1.28816
133      214.678 6 2 0 100 0 0.370802
134       205.66 7 2 0 100 0 -1.83423
135      214.159 8 2 0 100 0 -2.12669
136      204.244 9 2 0 100 0 2.1812
137      198.752 10 2 0 100 0 -0.245239
138      216.561 11 2 0 100 0 -2.39781
139      196.965 12 2 0 100 0 -1.63332
140       201.87 13 2 0 100 0 -0.434588
141      190.157 14 2 0 100 0 -0.3519
142      205.013 15 2 0 100 0 -0.0320682
143      200.235 16 2 0 100 0 1.87684
144      191.478 17 2 0 100 0 -1.14891
145      213.164 18 2 0 100 0 0.436968
146      197.813 19 2 0 100 0 -1.18162
147      204.336 20 2 0 100 0 -2.3503
148      203.898 21 2 0 100 0 -1.76631
149      197.613 22 2 0 100 0 2.94241
150      187.526 23 2 0 100 0 0.115763
151      191.859 24 2 0 100 0 1.71972
152      194.831 25 2 0 100 0 2.39824
153      204.389 26 2 0 100 0 -1.5513
154      191.627 27 2 0 100 0 2.79597
155      201.728 28 2 0 100 0 0.273975
156      213.171 29 2 0 100 0 -1.20298
157      209.449 30 2 0 100 0 -1.15236
158      213.286 31 2 0 100 0 1.25742
159      228.287 32 2 0 100 0 -2.27093
160      196.915 33 2 0 100 0 -0.665794
161      201.129 34 2 0 100 0 -0.492104
162      184.917 35 2 0 100 0 0.619096
163      169.978 36 2 0 100 0 -1.12061
164      222.296 37 2 0 100 0 0.764063
165      199.186 38 2 0 100 0 -1.50992
166      206.196 39 2 0 100 0 1.39786
167      208.729 40 2 0 100 0 -2.15899
168       204.43 41 2 0 100 0 -2.30814
169      180.258 42 2 0 100 0 2.49275
170      241.962 43 2 0 100 0 -1.62071
171      181.611 44 2 0 100 0 -0.973681
172      194.498 45 2 0 100 0 1.89978
173      198.638 46 2 0 100 0 1.41004
174       173.12 47 2 0 100 0 0.429696
175      203.171 48 2 0 100 0 -1.10847
176      208.556 49 2 0 100 0 -1.31545
177       226.43 50 2 0 100 0 -0.497159
178      193.984 51 2 0 100 0 2.47825
179      248.488 52 2 0 100 0 -0.540332
180      171.442 53 2 0 100 0 -0.109116
181      191.081 54 2 0 100 0 -0.133452
182      179.668 55 2 0 100 0 -0.31677
183      205.135 56 2 0 100 0 -3.04891
184       218.34 57 2 0 100 0 -0.244225
185      210.777 58 2 0 100 0 -1.88671
186      188.139 59 2 0 100 0 2.15098
187      185.862 60 2 0 100 0 1.59858
188      226.729 61 2 0 100 0 0.755216
189      209.999 62 2 0 100 0 -2.3354
190      192.155 63 2 0 100 0 2.37145
191      200.895 64 2 0 100 0 -1.68038
192      207.302 65 2 0 100 0 -0.455293
193      236.942 66 2 0 100 0 0.805742
194      249.719 67 2 0 100 0 -1.40291
195      211.181 68 2 0 100 0 -0.61179
196      231.882 69 2 0 100 0 0.711836
197      197.932 70 2 0 100 0 1.02245
198      227.809 71 2 0 100 0 0.454072
199      214.978 72 2 0 100 0 -0.779561
200      209.088 73 2 0 100 0 -2.28177
201      186.355 74 2 0 100 0 -1.3496
202      210.913 75 2 0 100 0 -3.69256
203      227.111 76 2 0 100 0 0.277299
204      224.425 77 2 0 100 0 2.88833
205      205.097 78 2 0 100 0 -3.12703
206      209.647 79 2 0 100 0 0.454928
207      196.976 80 2 0 100 0 -1.96731
208      210.479 81 2 0 100 0 -0.109576
209      184.825 82 2 0 100 0 1.58446
210      224.114 83 2 0 100 0 -0.226581
211      227.649 84 2 0 100 0 -0.136782
212      234.585 85 2 0 100 0 0.897337
213      190.402 86 2 0 100 0 2.54242
214      214.233 87 2 0 100 0 -0.190696
215      174.624 88 2 0 100 0 -1.16036
216      265.856 89 2 0 100 0 -1.98594
217      202.912 90 2 0 100 0 -1.47468
218      189.747 91 2 0 100 0 1.1721
219      213.938 92 2 0 100 0 -2.05687
220      209.284 93 2 0 100 0 0.917605
221      196.313 94 2 0 100 0 -0.753802
222      212.525 95 2 0 100 0 0.866118
223      197.157 96 2 0 100 0 0.803052
224      185.955 97 2 0 100 0 -2.27913
225      195.549 98 2 0 100 0 -2.4677
226      201.675 99 2 0 100 0 -0.760428
227      211.212 100 2 0 100 0 0.398855
228      201.007 101 2 0 100 0 1.95158
229      210.188 102 2 0 100 0 -0.0635587
230      212.066 103 2 0 100 0 0.752348
231      231.222 104 2 0 100 0 -1.69842
232      200.433 105 2 0 100 0 -3.73817
233       214.22 106 2 0 100 0 0.214759
234      192.832 107 2 0 100 0 0.0763476
235      185.268 108 2 0 100 0 1.29921
236      233.173 109 2 0 100 0 -1.3216
237      196.845 110 2 0 100 0 -1.90841
238      206.991 111 2 0 100 0 3.59856
239      196.687 112 2 0 100 0 -1.61498
240      211.036 113 2 0 100 0 -1.18558
241      242.376 114 2 0 100 0 0.414734
242      194.598 115 2 0 100 0 -1.88221
243      216.382 116 2 0 100 0 1.19736
244      190.284 117 2 0 100 0 -0.632517
245      201.851 118 2 0 100 0 -0.0143138
246      215.081 119 2 0 100 0 3.19517
247      238.443 120 2 0 100 0 -2.90117
248      224.193 121 2 0 100 0 -0.668876
249      226.619 122 2 0 100 0 0.31016
250      239.595 123 2 0 100 0 -0.4928
251      221.388 124 2 0 100 0 2.29889
252      208.541 125 2 0 100 0 0.475541
253      192.986 126 2 0 100 0 -0.501217
254      206.689 127 2 0 100 0 1.30513
255      201.926 128 2 0 100 0 -0.129533
256      223.355 129 2 0 100 0 0.825069

# Format of trapezoid gradients:
# id amplitude rise flat fall delay
# ..      Hz/m   us   us   us    us
[TRAP]
 1  -1.3125e+06 160    0 160   0
 2       400000  50 1000  50  50
 3      -580957  70 1080  70   0
 4      -556522  70 1080  70   0
 5       640000  80 2000  80   0
 6  1.86298e+06 220  350 220   0
 7       955224 120  550 120   0
 8      -547826  70 1080  70   0
 9       926471 110  570 110   0
10      -539130  70 1080  70   0
11       911765 110  570 110   0
12      -530435  70 1080  70   0
13       897059 110  570 110   0
14      -521739  70 1080  70   0
15       882353 110  570 110   0
16      -508621  60 1100  60   0
17       867647 110  570 110   0
18      -500000  60 1100  60   0
19       840580 100  590 100   0
20      -491379  60 1100  60   0
21       826087 100  590 100   0
22      -482759  60 1100  60   0
23       811594 100  590 100   0
24      -474138  60 1100  60   0
25       797101 100  590 100   0
26      -465517  60 1100  60   0
27       782609 100  590 100   0
28      -456897  60 1100  60   0
29       757143  90  610  90   0
30      -448276  60 1100  60   0
31       742857  90  610  90   0
32      -439655  60 1100  60   0
33       728571  90  610  90   0
34      -431034  60 1100  60   0
35       714286  90  610  90   0
36      -418803  50 1120  50   0
37       700000  90  610  90   0
38      -410256  50 1120  50   0
39       676056  80  630  80   0
40      -401709  50 1120  50   0
41       661972  80  630  80   0
42      -393162  50 1120  50   0
43       647887  80  630  80   0
44      -384615  50 1120  50   0
45       633803  80  630  80   0
46      -376068  50 1120  50   0
47       619718  80  630  80   0
48      -367521  50 1120  50   0
49       605634  80  630  80   0
50      -358974  50 1120  50   0
51       583333  70  650  70   0
52      -350427  50 1120  50   0
53       569444  70  650  70   0
54      -338983  40 1140  40   0
55       555556  70  650  70   0
56      -330508  40 1140  40   0
57       541667  70  650  70   0
58      -322034  40 1140  40   0
59       527778  70  650  70   0
60      -313559  40 1140  40   0
61       506849  60  670  60   0
62      -305085  40 1140  40   0
63       493151  60  670  60   0
64      -296610  40 1140  40   0
65       479452  60  670  60   0
66      -288136  40 1140  40   0
67       465753  60  670  60   0
68      -279661  40 1140  40   0
69       452055  60  670  60   0
70      -271186  40 1140  40   0
71       438356  60  670  60   0
72      -262712  40 1140  40   0
73       418919  50  690  50   0
74      -252101  30 1160  30   0
75       405405  50  690  50   0
76      -243697  30 1160  30   0
77       391892  50  690  50   0
78      -235294  30 1160  30   0
79       378378  50  690  50   0
80      -226891  30 1160  30   0
81       364865  50  690  50   0
82      -218487  30 1160  30   0
83       351351  50  690  50   0
84      -210084  30 1160  30   0
85       333333  40  710  40   0
86      -201681  30 1160  30   0
87       320000  40  710  40   0
88      -193277  30 1160  30   0
89       306667  40  710  40   0
90      -184874  30 1160  30   0
91       293333  40  710  40   0
92      -176471  30 1160  30   0
93       280000  40  710  40   0
94      -166667  20 1180  20   0
95       266667  40  710  40   0
96      -158333  20 1180  20   0
97       250000  30  730  30   0
98      -150000  20 1180  20   0
99       236842  30  730  30   0
100      -141667  20 1180  20   0
101       223684  30  730  30   0
102      -133333  20 1180  20   0
103       210526  30  730  30   0
104      -125000  20 1180  20   0
105       197368  30  730  30   0
106      -116667  20 1180  20   0
107       184211  30  730  30   0
108      -108333  20 1180  20   0
109       168831  20  750  20   0
110      -100000  20 1180  20   0
111       155844  20  750  20   0
112     -91666.7  20 1180  20   0
113       142857  20  750  20   0
114     -82644.6  10 1200  10   0
115       129870  20  750  20   0
116     -74380.2  10 1200  10   0
117       116883  20  750  20   0
118     -66115.7  10 1200  10   0
119       103896  20  750  20   0
120     -57851.2  10 1200  10   0
121      90909.1  20  750  20   0
122     -49586.8  10 1200  10   0
123      76923.1  10  770  10   0
124     -41322.3  10 1200  10   0
125      64102.6  10  770  10   0
126     -33057.9  10 1200  10   0
127      51282.1  10  770  10   0
128     -24793.4  10 1200  10   0
129      38461.5  10  770  10   0
130     -16528.9  10 1200  10   0
131        25641  10  770  10   0
132     -8264.46  10 1200  10   0
133      12820.5  10  770  10   0
134      8264.46  10 1200  10   0
135     -12820.5  10  770  10   0
136      16528.9  10 1200  10   0
137       -25641  10  770  10   0
138      24793.4  10 1200  10   0
139     -38461.5  10  770  10   0
140      33057.9  10 1200  10   0
141     -51282.1  10  770  10   0
142      41322.3  10 1200  10   0
143     -64102.6  10  770  10   0
144      49586.8  10 1200  10   0
145     -76923.1  10  770  10   0
146      57851.2  10 1200  10   0
147     -90909.1  20  750  20   0
148      66115.7  10 1200  10   0
149      -103896  20  750  20   0
150      74380.2  10 1200  10   0
151      -116883  20  750  20   0
152      82644.6  10 1200  10   0
153      -129870  20  750  20   0
154      91666.7  20 1180  20   0
155      -142857  20  750  20   0
156       100000  20 1180  20   0
157      -155844  20  750  20   0
158       108333  20 1180  20   0
159      -168831  20  750  20   0
160       116667  20 1180  20   0
161      -184211  30  730  30   0
162       125000  20 1180  20   0
163      -197368  30  730  30   0
164       133333  20 1180  20   0
165      -210526  30  730  30   0
166       141667  20 1180  20   0
167      -223684  30  730  30   0
168       150000  20 1180  20   0
169      -236842  30  730  30   0
170       158333  20 1180  20   0
171      -250000  30  730  30   0
172       166667  20 1180  20   0
173      -266667  40  710  40   0
174       176471  30 1160  30   0
175      -280000  40  710  40   0
176       184874  30 1160  30   0
177      -293333  40  710  40   0
178       193277  30 1160  30   0
179      -306667  40  710  40   0
180       201681  30 1160  30   0
181      -320000  40  710  40   0
182       210084  30 1160  30   0
183      -333333  40  710  40   0
184       218487  30 1160  30   0
185      -351351  50  690  50   0
186       226891  30 1160  30   0
187      -364865  50  690  50   0
188       235294  30 1160  30   0
189      -378378  50  690  50   0
190       243697  30 1160  30   0
191      -391892  50  690  50   0
192       252101  30 1160  30   0
193      -405405  50  690  50   0
194       262712  40 1140  40   0
195      -418919  50  690  50   0
196       271186  40 1140  40   0
197      -438356  60  670  60   0
198       279661  40 1140  40   0
199      -452055  60  670  60   0
200       288136  40 1140  40   0
201      -465753  60  670  60   0
202       296610  40 1140  40   0
203      -479452  60  670  60   0
204       305085  40 1140  40   0
205      -493151  60  670  60   0
206       313559  40 1140  40   0
207      -506849  60  670  60   0
208       322034  40 1140  40   0
209      -527778  70  650  70   0
210       330508  40 1140  40   0
211      -541667  70  650  70   0
212       338983  40 1140  40   0
213      -555556  70  650  70   0
214       350427  50 1120  50   0
215      -569444  70  650  70   0
216       358974  50 1120  50   0
217      -583333  70  650  70   0
218       367521  50 1120  50   0
219      -605634  80  630  80   0
220       376068  50 1120  50   0
221      -619718  80  630  80   0
222       384615  50 1120  50   0
223      -633803  80  630  80   0
224       393162  50 1120  50   0
225      -647887  80  630  80   0
226       401709  50 1120  50   0
227      -661972  80  630  80   0
228       410256  50 1120  50   0
229      -676056  80  630  80   0
230       418803  50 1120  50   0
231      -700000  90  610  90   0
232       431034  60 1100  60   0
233      -714286  90  610  90   0
234       439655  60 1100  60   0
235      -728571  90  610  90   0
236       448276  60 1100  60   0
237      -742857  90  610  90   0
238       456897  60 1100  60   0
239      -757143  90  610  90   0
240       465517  60 1100  60   0
241      -782609 100  590 100   0
242       474138  60 1100  60   0
243      -797101 100  590 100   0
244       482759  60 1100  60   0
245      -811594 100  590 100   0
246       491379  60 1100  60   0
247      -826087 100  590 100   0
248       500000  60 1100  60   0
249      -840580 100  590 100   0
250       508621  60 1100  60   0
251      -867647 110  570 110   0
252       521739  70 1080  70   0
253      -882353 110  570 110   0
254       530435  70 1080  70   0
255      -897059 110  570 110   0
256       539130  70 1080  70   0
257      -911765 110  570 110   0
258       547826  70 1080  70   0
259      -926471 110  570 110   0
260      -552174  70 1080  70   0
261       933824 110  570 110   0
262      -543478  70 1080  70   0
263       919118 110  570 110   0
264      -534783  70 1080  70   0
265       904412 110  570 110   0
266      -526087  70 1080  70   0
267       889706 110  570 110   0
268      -517391  70 1080  70   0
269       875000 110  570 110   0
270      -504310  60 1100  60   0
271       847826 100  590 100   0
272      -495690  60 1100  60   0
273       833333 100  590 100   0
274      -487069  60 1100  60   0
275       818841 100  590 100   0
276      -478448  60 1100  60   0
277       804348 100  590 100   0
278      -469828  60 1100  60   0
279       789855 100  590 100   0
280      -461207  60 1100  60   0
281       764286  90  610  90   0
282      -452586  60 1100  60   0
283       750000  90  610  90   0
284      -443966  60 1100  60   0
285       735714  90  610  90   0
286      -435345  60 1100  60   0
287       721429  90  610  90   0
288      -423077  50 1120  50   0
289       707143  90  610  90   0
290      -414530  50 1120  50   0
291       692857  90  610  90   0
292      -405983  50 1120  50   0
293       669014  80  630  80   0
294      -397436  50 1120  50   0
295       654930  80  630  80   0
296      -388889  50 1120  50   0
