# Pulseq sequence file
# Created by PyPulseq

[VERSION]
major 1
minor 4
revision 0

[DEFINITIONS]
AdcRasterTime 1e-07 
Bandwidth 499 Hz/px 
BlockDurationRaster 1e-05 
FOV 0.2 0.2 0.01 
GradientRasterTime 1e-05 
RadiofrequencyRasterTime 1e-06 
TotalDuration 30.53414 

# Format of blocks:
# NUM DUR RF  GX  GY  GZ  ADC  EXT
[BLOCKS]
   1 499908   0   0   0   0  0  0
   2  32   0   0   0   1  0  0
   3 115   1   0   0   2  0  0
   4  32   0   0   0   1  0  0
   5   3   0   0   0   0  0  0
   6 122   0   3   0   0  0  0
   7 216   0   4   0   0  1  0
   8  79   0   5   0   0  0  0
   9   1   0   0   0   0  0  0
  10  32   0   0   0   1  0  0
  11 115   2   0   0   2  0  0
  12  32   0   0   0   1  0  0
  13   3   0   0   0   0  0  0
  14 122   0   3   6   0  0  0
  15 216   0   4   0   0  2  0
  16  79   0   5   7   0  0  0
  17   1   0   0   0   0  0  0
  18  32   0   0   0   1  0  0
  19 115   3   0   0   2  0  0
  20  32   0   0   0   1  0  0
  21   3   0   0   0   0  0  0
  22 122   0   3   8   0  0  0
  23 216   0   4   0   0  3  0
  24  79   0   5   9   0  0  0
  25   1   0   0   0   0  0  0
  26  32   0   0   0   1  0  0
  27 115   4   0   0   2  0  0
  28  32   0   0   0   1  0  0
  29   3   0   0   0   0  0  0
  30 122   0   3  10   0  0  0
  31 216   0   4   0   0  4  0
  32  79   0   5  11   0  0  0
  33   1   0   0   0   0  0  0
  34  32   0   0   0   1  0  0
  35 115   5   0   0   2  0  0
  36  32   0   0   0   1  0  0
  37   3   0   0   0   0  0  0
  38 122   0   3  12   0  0  0
  39 216   0   4   0   0  5  0
  40  79   0   5  13   0  0  0
  41   1   0   0   0   0  0  0
  42  32   0   0   0   1  0  0
  43 115   6   0   0   2  0  0
  44  32   0   0   0   1  0  0
  45   3   0   0   0   0  0  0
  46 122   0   3  14   0  0  0
  47 216   0   4   0   0  6  0
  48  79   0   5  15   0  0  0
  49   1   0   0   0   0  0  0
  50  32   0   0   0   1  0  0
  51 115   7   0   0   2  0  0
  52  32   0   0   0   1  0  0
  53   3   0   0   0   0  0  0
  54 122   0   3  16   0  0  0
  55 216   0   4   0   0  7  0
  56  79   0   5  17   0  0  0
  57   1   0   0   0   0  0  0
  58  32   0   0   0   1  0  0
  59 115   8   0   0   2  0  0
  60  32   0   0   0   1  0  0
  61   3   0   0   0   0  0  0
  62 122   0   3  18   0  0  0
  63 216   0   4   0   0  8  0
  64  79   0   5  19   0  0  0
  65   1   0   0   0   0  0  0
  66  32   0   0   0   1  0  0
  67 115   9   0   0   2  0  0
  68  32   0   0   0   1  0  0
  69   3   0   0   0   0  0  0
  70 122   0   3  20   0  0  0
  71 216   0   4   0   0  9  0
  72  79   0   5  21   0  0  0
  73   1   0   0   0   0  0  0
  74  32   0   0   0   1  0  0
  75 115  10   0   0   2  0  0
  76  32   0   0   0   1  0  0
  77   3   0   0   0   0  0  0
  78 122   0   3  22   0  0  0
  79 216   0   4   0   0 10  0
  80  79   0   5  23   0  0  0
  81   1   0   0   0   0  0  0
  82  32   0   0   0   1  0  0
  83 115  11   0   0   2  0  0
  84  32   0   0   0   1  0  0
  85   3   0   0   0   0  0  0
  86 122   0   3  24   0  0  0
  87 216   0   4   0   0 11  0
  88  79   0   5  25   0  0  0
  89   1   0   0   0   0  0  0
  90  32   0   0   0   1  0  0
  91 115  12   0   0   2  0  0
  92  32   0   0   0   1  0  0
  93   3   0   0   0   0  0  0
  94 122   0   3  26   0  0  0
  95 216   0   4   0   0 12  0
  96  79   0   5  27   0  0  0
  97   1   0   0   0   0  0  0
  98  32   0   0   0   1  0  0
  99 115  13   0   0   2  0  0
 100  32   0   0   0   1  0  0
 101   3   0   0   0   0  0  0
 102 122   0   3  28   0  0  0
 103 216   0   4   0   0 13  0
 104  79   0   5  29   0  0  0
 105   1   0   0   0   0  0  0
 106  32   0   0   0   1  0  0
 107 115  14   0   0   2  0  0
 108  32   0   0   0   1  0  0
 109   3   0   0   0   0  0  0
 110 122   0   3  30   0  0  0
 111 216   0   4   0   0 14  0
 112  79   0   5  31   0  0  0
 113   1   0   0   0   0  0  0
 114  32   0   0   0   1  0  0
 115 115  15   0   0   2  0  0
 116  32   0   0   0   1  0  0
 117   3   0   0   0   0  0  0
 118 122   0   3  32   0  0  0
 119 216   0   4   0   0 15  0
 120  79   0   5  33   0  0  0
 121   1   0   0   0   0  0  0
 122  32   0   0   0   1  0  0
 123 115  16   0   0   2  0  0
 124  32   0   0   0   1  0  0
 125   3   0   0   0   0  0  0
 126 122   0   3  34   0  0  0
 127 216   0   4   0   0 16  0
 128  79   0   5  35   0  0  0
 129   1   0   0   0   0  0  0
 130  32   0   0   0   1  0  0
 131 115  17   0   0   2  0  0
 132  32   0   0   0   1  0  0
 133   3   0   0   0   0  0  0
 134 122   0   3  36   0  0  0
 135 216   0   4   0   0 17  0
 136  79   0   5  37   0  0  0
 137   1   0   0   0   0  0  0
 138  32   0   0   0   1  0  0
 139 115  18   0   0   2  0  0
 140  32   0   0   0   1  0  0
 141   3   0   0   0   0  0  0
 142 122   0   3  38   0  0  0
 143 216   0   4   0   0 18  0
 144  79   0   5  39   0  0  0
 145   1   0   0   0   0  0  0
 146  32   0   0   0   1  0  0
 147 115  19   0   0   2  0  0
 148  32   0   0   0   1  0  0
 149   3   0   0   0   0  0  0
 150 122   0   3  40   0  0  0
 151 216   0   4   0   0 19  0
 152  79   0   5  41   0  0  0
 153   1   0   0   0   0  0  0
 154  32   0   0   0   1  0  0
 155 115  20   0   0   2  0  0
 156  32   0   0   0   1  0  0
 157   3   0   0   0   0  0  0
 158 122   0   3  42   0  0  0
 159 216   0   4   0   0 20  0
 160  79   0   5  43   0  0  0
 161   1   0   0   0   0  0  0
 162  32   0   0   0   1  0  0
 163 115  21   0   0   2  0  0
 164  32   0   0   0   1  0  0
 165   3   0   0   0   0  0  0
 166 122   0   3  44   0  0  0
 167 216   0   4   0   0 21  0
 168  79   0   5  45   0  0  0
 169   1   0   0   0   0  0  0
 170  32   0   0   0   1  0  0
 171 115  22   0   0   2  0  0
 172  32   0   0   0   1  0  0
 173   3   0   0   0   0  0  0
 174 122   0   3  46   0  0  0
 175 216   0   4   0   0 22  0
 176  79   0   5  47   0  0  0
 177   1   0   0   0   0  0  0
 178  32   0   0   0   1  0  0
 179 115  23   0   0   2  0  0
 180  32   0   0   0   1  0  0
 181   3   0   0   0   0  0  0
 182 122   0   3  48   0  0  0
 183 216   0   4   0   0 23  0
 184  79   0   5  49   0  0  0
 185   1   0   0   0   0  0  0
 186  32   0   0   0   1  0  0
 187 115  24   0   0   2  0  0
 188  32   0   0   0   1  0  0
 189   3   0   0   0   0  0  0
 190 122   0   3  50   0  0  0
 191 216   0   4   0   0 24  0
 192  79   0   5  51   0  0  0
 193   1   0   0   0   0  0  0
 194  32   0   0   0   1  0  0
 195 115  25   0   0   2  0  0
 196  32   0   0   0   1  0  0
 197   3   0   0   0   0  0  0
 198 122   0   3  52   0  0  0
 199 216   0   4   0   0 25  0
 200  79   0   5  53   0  0  0
 201   1   0   0   0   0  0  0
 202  32   0   0   0   1  0  0
 203 115  26   0   0   2  0  0
 204  32   0   0   0   1  0  0
 205   3   0   0   0   0  0  0
 206 122   0   3  54   0  0  0
 207 216   0   4   0   0 26  0
 208  79   0   5  55   0  0  0
 209   1   0   0   0   0  0  0
 210  32   0   0   0   1  0  0
 211 115  27   0   0   2  0  0
 212  32   0   0   0   1  0  0
 213   3   0   0   0   0  0  0
 214 122   0   3  56   0  0  0
 215 216   0   4   0   0 27  0
 216  79   0   5  57   0  0  0
 217   1   0   0   0   0  0  0
 218  32   0   0   0   1  0  0
 219 115  28   0   0   2  0  0
 220  32   0   0   0   1  0  0
 221   3   0   0   0   0  0  0
 222 122   0   3  58   0  0  0
 223 216   0   4   0   0 28  0
 224  79   0   5  59   0  0  0
 225   1   0   0   0   0  0  0
 226  32   0   0   0   1  0  0
 227 115  29   0   0   2  0  0
 228  32   0   0   0   1  0  0
 229   3   0   0   0   0  0  0
 230 122   0   3  60   0  0  0
 231 216   0   4   0   0 29  0
 232  79   0   5  61   0  0  0
 233   1   0   0   0   0  0  0
 234  32   0   0   0   1  0  0
 235 115  30   0   0   2  0  0
 236  32   0   0   0   1  0  0
 237   3   0   0   0   0  0  0
 238 122   0   3  62   0  0  0
 239 216   0   4   0   0 30  0
 240  79   0   5  63   0  0  0
 241   1   0   0   0   0  0  0
 242  32   0   0   0   1  0  0
 243 115  31   0   0   2  0  0
 244  32   0   0   0   1  0  0
 245   3   0   0   0   0  0  0
 246 122   0   3  64   0  0  0
 247 216   0   4   0   0 31  0
 248  79   0   5  65   0  0  0
 249   1   0   0   0   0  0  0
 250  32   0   0   0   1  0  0
 251 115  32   0   0   2  0  0
 252  32   0   0   0   1  0  0
 253   3   0   0   0   0  0  0
 254 122   0   3  66   0  0  0
 255 216   0   4   0   0 32  0
 256  79   0   5  67   0  0  0
 257   1   0   0   0   0  0  0
 258  32   0   0   0   1  0  0
 259 115  33   0   0   2  0  0
 260  32   0   0   0   1  0  0
 261   3   0   0   0   0  0  0
 262 122   0   3  68   0  0  0
 263 216   0   4   0   0 33  0
 264  79   0   5  69   0  0  0
 265   1   0   0   0   0  0  0
 266  32   0   0   0   1  0  0
 267 115  34   0   0   2  0  0
 268  32   0   0   0   1  0  0
 269   3   0   0   0   0  0  0
 270 122   0   3  70   0  0  0
 271 216   0   4   0   0 34  0
 272  79   0   5  71   0  0  0
 273   1   0   0   0   0  0  0
 274  32   0   0   0   1  0  0
 275 115  35   0   0   2  0  0
 276  32   0   0   0   1  0  0
 277   3   0   0   0   0  0  0
 278 122   0   3  72   0  0  0
 279 216   0   4   0   0 35  0
 280  79   0   5  73   0  0  0
 281   1   0   0   0   0  0  0
 282  32   0   0   0   1  0  0
 283 115  36   0   0   2  0  0
 284  32   0   0   0   1  0  0
 285   3   0   0   0   0  0  0
 286 122   0   3  74   0  0  0
 287 216   0   4   0   0 36  0
 288  79   0   5  75   0  0  0
 289   1   0   0   0   0  0  0
 290  32   0   0   0   1  0  0
 291 115  37   0   0   2  0  0
 292  32   0   0   0   1  0  0
 293   3   0   0   0   0  0  0
 294 122   0   3  76   0  0  0
 295 216   0   4   0   0 37  0
 296  79   0   5  77   0  0  0
 297   1   0   0   0   0  0  0
 298  32   0   0   0   1  0  0
 299 115  38   0   0   2  0  0
 300  32   0   0   0   1  0  0
 301   3   0   0   0   0  0  0
 302 122   0   3  78   0  0  0
 303 216   0   4   0   0 38  0
 304  79   0   5  79   0  0  0
 305   1   0   0   0   0  0  0
 306  32   0   0   0   1  0  0
 307 115  39   0   0   2  0  0
 308  32   0   0   0   1  0  0
 309   3   0   0   0   0  0  0
 310 122   0   3  80   0  0  0
 311 216   0   4   0   0 39  0
[RF]
1      213.733 1 2 0 100 0 0.337105
2      213.733 1 2 0 100 0 1.72079
3      213.733 1 2 0 100 0 1.43026
4      213.733 1 2 0 100 0 -1.34247
5      213.733 1 2 0 100 0 0.451212
6      213.733 1 2 0 100 0 -1.73485
7      213.733 1 2 0 100 0 -2.36138
8      213.733 1 2 0 100 0 2.20151
9      213.733 1 2 0 100 0 -0.0627221
10      213.733 1 2 0 100 0 -2.34144
11      213.733 1 2 0 100 0 -1.41317
12      213.733 1 2 0 100 0 -0.145584
13      213.733 1 2 0 100 0 -0.27781
14      213.733 1 2 0 100 0 -0.247857
15      213.733 1 2 0 100 0 1.70835
16      213.733 1 2 0 100 0 -1.45702
17      213.733 1 2 0 100 0 0.220882
18      213.733 1 2 0 100 0 -1.00319
19      213.733 1 2 0 100 0 -2.37116
20      213.733 1 2 0 100 0 -1.68986
21      213.733 1 2 0 100 0 2.29717
22      213.733 1 2 0 100 0 -0.0345037
23      213.733 1 2 0 100 0 1.59237
24      213.733 1 2 0 100 0 2.27233
25      213.733 1 2 0 100 0 -1.68273
26      213.733 1 2 0 100 0 3.03265
27      213.733 1 2 0 100 0 0.327613
28      213.733 1 2 0 100 0 -1.44473
29      213.733 1 2 0 100 0 -1.00802
30      213.733 1 2 0 100 0 0.921786
31      213.733 1 2 0 100 0 -2.29703
32      213.733 1 2 0 100 0 -0.606322
33      213.733 1 2 0 100 0 -0.181577
34      213.733 1 2 0 100 0 0.476566
35      213.733 1 2 0 100 0 -1.45349
36      213.733 1 2 0 100 0 0.873384
37      213.733 1 2 0 100 0 -1.49361
38      213.733 1 2 0 100 0 1.40798
39      213.733 1 2 0 100 0 -2.38804
40      213.733 1 2 0 100 0 -2.23762
41      213.733 1 2 0 100 0 2.30709
42      213.733 1 2 0 100 0 -1.54927
43      213.733 1 2 0 100 0 -0.745161
44      213.733 1 2 0 100 0 1.7863
45      213.733 1 2 0 100 0 1.15543
46      213.733 1 2 0 100 0 0.660181
47      213.733 1 2 0 100 0 -1.07403
48      213.733 1 2 0 100 0 -1.21864
49      213.733 1 2 0 100 0 -0.462317
50      213.733 1 2 0 100 0 2.46447
51      213.733 1 2 0 100 0 -0.383889
52      213.733 1 2 0 100 0 -0.2075
53      213.733 1 2 0 100 0 -0.0198315
54      213.733 1 2 0 100 0 -0.148696
55      213.733 1 2 0 100 0 -3.18196
56      213.733 1 2 0 100 0 -0.273519
57      213.733 1 2 0 100 0 -1.70367
58      213.733 1 2 0 100 0 2.10439
59      213.733 1 2 0 100 0 1.87266
60      213.733 1 2 0 100 0 0.947577
61      213.733 1 2 0 100 0 -2.46975
62      213.733 1 2 0 100 0 2.07389
63      213.733 1 2 0 100 0 -1.76644
64      213.733 1 2 0 100 0 -0.446039
65      213.733 1 2 0 100 0 0.931018
66      213.733 1 2 0 100 0 -1.41942
67      213.733 1 2 0 100 0 -0.62686
68      213.733 1 2 0 100 0 0.895066
69      213.733 1 2 0 100 0 1.24426
70      213.733 1 2 0 100 0 0.388475
71      213.733 1 2 0 100 0 -0.897131
72      213.733 1 2 0 100 0 -2.2434
73      213.733 1 2 0 100 0 -1.32332
74      213.733 1 2 0 100 0 -3.78288
75      213.733 1 2 0 100 0 0.417669
76      213.733 1 2 0 100 0 2.92144
77      213.733 1 2 0 100 0 -3.26576
78      213.733 1 2 0 100 0 0.0754961
79      213.733 1 2 0 100 0 -1.98455
80      213.733 1 2 0 100 0 0.148483
81      213.733 1 2 0 100 0 1.2648
82      213.733 1 2 0 100 0 -0.0900167
83      213.733 1 2 0 100 0 -0.0347751
84      213.733 1 2 0 100 0 1.23773
85      213.733 1 2 0 100 0 2.26618
86      213.733 1 2 0 100 0 -0.175842
87      213.733 1 2 0 100 0 -0.985698
88      213.733 1 2 0 100 0 -2.03962
89      213.733 1 2 0 100 0 -1.27601
90      213.733 1 2 0 100 0 1.28396
91      213.733 1 2 0 100 0 -1.89171
92      213.733 1 2 0 100 0 0.950605
93      213.733 1 2 0 100 0 -0.785665
94      213.733 1 2 0 100 0 0.685373
95      213.733 1 2 0 100 0 0.784097
96      213.733 1 2 0 100 0 -2.25286
97      213.733 1 2 0 100 0 -2.46978
98      213.733 1 2 0 100 0 -0.73816
99      213.733 1 2 0 100 0 0.576869
100      213.733 1 2 0 100 0 1.86768
101      213.733 1 2 0 100 0 -0.239188
102      213.733 1 2 0 100 0 0.955348
103      213.733 1 2 0 100 0 -1.5183
104      213.733 1 2 0 100 0 -4.03474
105      213.733 1 2 0 100 0 0.530741
106      213.733 1 2 0 100 0 0.046902
107      213.733 1 2 0 100 0 1.15017
108      213.733 1 2 0 100 0 -1.1921
109      213.733 1 2 0 100 0 -1.60749
110      213.733 1 2 0 100 0 3.23922
111      213.733 1 2 0 100 0 -1.73743
112      213.733 1 2 0 100 0 -1.25258
113      213.733 1 2 0 100 0 0.121647
114      213.733 1 2 0 100 0 -2.0049
115      213.733 1 2 0 100 0 1.34001
116      213.733 1 2 0 100 0 -0.303344
117      213.733 1 2 0 100 0 0.0901196
118      213.733 1 2 0 100 0 3.4727
119      213.733 1 2 0 100 0 -2.63486
120      213.733 1 2 0 100 0 -1.04239
121      213.733 1 2 0 100 0 0.118874
122      213.733 1 2 0 100 0 -0.372419
123      213.733 1 2 0 100 0 2.28041
124      213.733 1 2 0 100 0 0.348267
125      213.733 1 2 0 100 0 -0.552971
126      213.733 1 2 0 100 0 1.41322
127      213.733 1 2 0 100 0 -0.43039
128      213.733 1 2 0 100 0 0.67329
129      213.733 1 2 0 100 0 0.337105

# Format of trapezoid gradients:
# id amplitude rise flat fall delay
# ..      Hz/m   us   us   us    us
[TRAP]
 1  -1.3125e+06 160    0 160   0
 2       400000  50 1000  50  50
 3      -580957  70 1080  70   0
 4       640000  80 2000  80   0
 5  1.86298e+06 220  350 220   0
 6      4132.23  10 1200  10   0
 7     -6410.26  10  770  10   0
 8      8264.46  10 1200  10   0
 9     -12820.5  10  770  10   0
10      12396.7  10 1200  10   0
11     -19230.8  10  770  10   0
12      16528.9  10 1200  10   0
13       -25641  10  770  10   0
14      20661.2  10 1200  10   0
15     -32051.3  10  770  10   0
16      24793.4  10 1200  10   0
17     -38461.5  10  770  10   0
18      28925.6  10 1200  10   0
19     -44871.8  10  770  10   0
20      33057.9  10 1200  10   0
21     -51282.1  10  770  10   0
22      37190.1  10 1200  10   0
23     -57692.3  10  770  10   0
24      41322.3  10 1200  10   0
25     -64102.6  10  770  10   0
26      45454.5  10 1200  10   0
27     -70512.8  10  770  10   0
28      49586.8  10 1200  10   0
29     -76923.1  10  770  10   0
30        53719  10 1200  10   0
31     -83333.3  10  770  10   0
32      57851.2  10 1200  10   0
33     -90909.1  20  750  20   0
34      61983.5  10 1200  10   0
35     -97402.6  20  750  20   0
36      66115.7  10 1200  10   0
37      -103896  20  750  20   0
38      70247.9  10 1200  10   0
39      -110390  20  750  20   0
40      74380.2  10 1200  10   0
41      -116883  20  750  20   0
42      78512.4  10 1200  10   0
43      -123377  20  750  20   0
44      82644.6  10 1200  10   0
45      -129870  20  750  20   0
46        87500  20 1180  20   0
47      -136364  20  750  20   0
48      91666.7  20 1180  20   0
49      -142857  20  750  20   0
50      95833.3  20 1180  20   0
51      -149351  20  750  20   0
52       100000  20 1180  20   0
53      -155844  20  750  20   0
54       104167  20 1180  20   0
55      -162338  20  750  20   0
56       108333  20 1180  20   0
57      -168831  20  750  20   0
58       112500  20 1180  20   0
59      -177632  30  730  30   0
60       116667  20 1180  20   0
61      -184211  30  730  30   0
62       120833  20 1180  20   0
63      -190789  30  730  30   0
64       125000  20 1180  20   0
65      -197368  30  730  30   0
66       129167  20 1180  20   0
67      -203947  30  730  30   0
68       133333  20 1180  20   0
69      -210526  30  730  30   0
70       137500  20 1180  20   0
71      -217105  30  730  30   0
72       141667  20 1180  20   0
73      -223684  30  730  30   0
74       145833  20 1180  20   0
75      -230263  30  730  30   0
76       150000  20 1180  20   0
77      -236842  30  730  30   0
78       154167  20 1180  20   0
79      -243421  30  730  30   0
80       158333  20 1180  20   0
81      -250000  30  730  30   0
82       162500  20 1180  20   0
83      -260000  40  710  40   0
84       166667  20 1180  20   0
85      -266667  40  710  40   0
86       172269  30 1160  30   0
87      -273333  40  710  40   0
88       176471  30 1160  30   0
89      -280000  40  710  40   0
90       180672  30 1160  30   0
91      -286667  40  710  40   0
92       184874  30 1160  30   0
93      -293333  40  710  40   0
94       189076  30 1160  30   0
95      -300000  40  710  40   0
96       193277  30 1160  30   0
97      -306667  40  710  40   0
98       197479  30 1160  30   0
99      -313333  40  710  40   0
100       201681  30 1160  30   0
101      -320000  40  710  40   0
102       205882  30 1160  30   0
103      -326667  40  710  40   0
104       210084  30 1160  30   0
105      -333333  40  710  40   0
106       214286  30 1160  30   0
107      -340000  40  710  40   0
108       218487  30 1160  30   0
109      -351351  50  690  50   0
110       222689  30 1160  30   0
111      -358108  50  690  50   0
112       226891  30 1160  30   0
113      -364865  50  690  50   0
114       231092  30 1160  30   0
115      -371622  50  690  50   0
116       235294  30 1160  30   0
117      -378378  50  690  50   0
118       239496  30 1160  30   0
119      -385135  50  690  50   0
120       243697  30 1160  30   0
121      -391892  50  690  50   0
122       247899  30 1160  30   0
123      -398649  50  690  50   0
124       252101  30 1160  30   0
125      -405405  50  690  50   0
126       258475  40 1140  40   0
127      -412162  50  690  50   0
128       262712  40 1140  40   0
129      -418919  50  690  50   0
130       266949  40 1140  40   0
131      -425676  50  690  50   0
132       271186  40 1140  40   0
133      -438356  60  670  60   0
134       275424  40 1140  40   0
135      -445205  60  670  60   0
136       279661  40 1140  40   0
137      -452055  60  670  60   0
138       283898  40 1140  40   0
139      -458904  60  670  60   0
140       288136  40 1140  40   0
141      -465753  60  670  60   0
142       292373  40 1140  40   0
143      -472603  60  670  60   0
144       296610  40 1140  40   0
145      -479452  60  670  60   0
146       300847  40 1140  40   0
147      -486301  60  670  60   0
148       305085  40 1140  40   0
149      -493151  60  670  60   0
150       309322  40 1140  40   0
151      -500000  60  670  60   0
152       313559  40 1140  40   0
153      -506849  60  670  60   0
154       317797  40 1140  40   0
155      -520833  70  650  70   0
156       322034  40 1140  40   0
157      -527778  70  650  70   0
158       326271  40 1140  40   0
159      -534722  70  650  70   0
160       330508  40 1140  40   0
161      -541667  70  650  70   0
162       334746  40 1140  40   0
163      -548611  70  650  70   0
164       338983  40 1140  40   0
165      -555556  70  650  70   0
166       346154  50 1120  50   0
167      -562500  70  650  70   0
168       350427  50 1120  50   0
169      -569444  70  650  70   0
170       354701  50 1120  50   0
171      -576389  70  650  70   0
172       358974  50 1120  50   0
173      -583333  70  650  70   0
174       363248  50 1120  50   0
175      -590278  70  650  70   0
176       367521  50 1120  50   0
177      -605634  80  630  80   0
178       371795  50 1120  50   0
179      -612676  80  630  80   0
180       376068  50 1120  50   0
181      -619718  80  630  80   0
182       380342  50 1120  50   0
183      -626761  80  630  80   0
184       384615  50 1120  50   0
185      -633803  80  630  80   0
186       388889  50 1120  50   0
187      -640845  80  630  80   0
188       393162  50 1120  50   0
189      -647887  80  630  80   0
190       397436  50 1120  50   0
191      -654930  80  630  80   0
192       401709  50 1120  50   0
193      -661972  80  630  80   0
194       405983  50 1120  50   0
195      -669014  80  630  80   0
196       410256  50 1120  50   0
197      -676056  80  630  80   0
198       414530  50 1120  50   0
199      -692857  90  610  90   0
200       418803  50 1120  50   0
201      -700000  90  610  90   0
202       423077  50 1120  50   0
203      -707143  90  610  90   0
204       431034  60 1100  60   0
205      -714286  90  610  90   0
206       435345  60 1100  60   0
207      -721429  90  610  90   0
208       439655  60 1100  60   0
209      -728571  90  610  90   0
210       443966  60 1100  60   0
211      -735714  90  610  90   0
212       448276  60 1100  60   0
213      -742857  90  610  90   0
214       452586  60 1100  60   0
215      -750000  90  610  90   0
216       456897  60 1100  60   0
217      -757143  90  610  90   0
218       461207  60 1100  60   0
219      -764286  90  610  90   0
220       465517  60 1100  60   0
221      -782609 100  590 100   0
222       469828  60 1100  60   0
223      -789855 100  590 100   0
224       474138  60 1100  60   0
225      -797101 100  590 100   0
226       478448  60 1100  60   0
227      -804348 100  590 100   0
228       482759  60 1100  60   0
229      -811594 100  590 100   0
230       487069  60 1100  60   0
231      -818841 100  590 100   0
232       491379  60 1100  60   0
233      -826087 100  590 100   0
234       495690  60 1100  60   0
235      -833333 100  590 100   0
236       500000  60 1100  60   0
237      -840580 100  590 100   0
238       504310  60 1100  60   0
239      -847826 100  590 100   0
240       508621  60 1100  60   0
241      -867647 110  570 110   0
242       517391  70 1080  70   0
243      -875000 110  570 110   0
244       521739  70 1080  70   0
245      -882353 110  570 110   0
246       526087  70 1080  70   0
247      -889706 110  570 110   0
248       530435  70 1080  70   0
249      -897059 110  570 110   0
250       534783  70 1080  70   0
251      -904412 110  570 110   0
252       539130  70 1080  70   0
253      -911765 110  570 110   0
254       543478  70 1080  70   0
255      -919118 110  570 110   0
256       547826  70 1080  70   0
257      -926471 110  570 110   0
258       552174  70 1080  70   0
259      -933824 110  570 110   0
260     -4132.23  10 1200  10   0
261      6410.26  10  770  10   0
262     -8264.46  10 1200  10   0
263      12820.5  10  770  10   0
264     -12396.7  10 1200  10   0
265      19230.8  10  770  10   0
266     -16528.9  10 1200  10   0
267        25641  10  770  10   0
268     -20661.2  10 1200  10   0
269      32051.3  10  770  10   0
270     -24793.4  10 1200  10   0
271      38461.5  10  770  10   0
272     -28925.6  10 1200  10   0
273      44871.8  10  770  10   0
274     -33057.9  10 1200  10   0
275      51282.1  10  770  10   0
276     -37190.1  10 1200  10   0
277      57692.3  10  770  10   0
278     -41322.3  10 1200  10   0
279      64102.6  10  770  10   0
280     -45454.5  10 1200  10   0
281      70512.8  10  770  10   0
282     -49586.8  10 1200  10   0
283      76923.1  10  770  10   0
284       -53719  10 1200  10   0
285      83333.3  10  770  10   0
286     -57851.2  10 1200  10   0
287      90909.1  20  750  20   0
288     -61983.5  10 1200  10   0
289      97402.6  20  750  20   0
290     -66115.7  10 1200  10   0
291       103896  20  750  20   0
292     -70247.9  10 1200  10   0
293       110390  20  750  20   0
294     -74380.2  10 1200  10   0
295       116883  20  750  20   0
296     -78512.4  10 1200  10   0
297       123377  20  750  20   0
298     -82644.6  10 1200  10   0
299       129870  20  750  20   0
300       -87500  20 1180  20   0
301       136364  20  750  20   0
302     -91666.7  20 1180  20   0
303       142857  20  750  20   0
304     -95833.3  20 1180  20   0
305       149351  20  750  20   0
306      -100000  20 1180  20   0
307       155844  20  750  20   0
308      -104167  20 1180  20   0
309       162338  20  750  20   0
310      -108333  20 1180  20   0
311       168831  20  750  20   0
312      -112500  20 1180  20   0
313       177632  30  730  30   0
314      -116667  20 1180  20   0
315       184211  30  730  30   0
316      -120833  20 1180  20   0
317       190789  30  730  30   0
318      -125000  20 1180  20   0
319       197368  30  730  30   0
320      -129167  20 1180  20   0
321       203947  30  730  30   0
322      -133333  20 1180  20   0
323       210526  30  730  30   0
324      -137500  20 1180  20   0
325       217105  30  730  30   0
326      -141667  20 1180  20   0
327       223684  30  730  30   0
328      -145833  20 1180  20   0
329       230263  30  730  30   0
330      -150000  20 1180  20   0
331       236842  30  730  30   0
332      -154167  20 1180  20   0
333       243421  30  730  30   0
334      -158333  20 1180  20   0
335       250000  30  730  30   0
336      -162500  20 1180  20   0
337       260000  40  710  40   0
338      -166667  20 1180  20   0
339       266667  40  710  40   0
340      -172269  30 1160  30   0
341       273333  40  710  40   0
342      -176471  30 1160  30   0
343       280000  40  710  40   0
344      -180672  30 1160  30   0
345       286667  40  710  40   0
346      -184874  30 1160  30   0
347       293333  40  710  40   0
348      -189076  30 1160  30   0
349       300000  40  710  40   0
350      -193277  30 1160  30   0
351       306667  40  710  40   0
352      -197479  30 1160  30   0
353       313333  40  710  40   0
354      -201681  30 1160  30   0
355       320000  40  710  40   0
356      -205882  30 1160  30   0
357       326667  40  710  40   0
358      -210084  30 1160  30   0
359       333333  40  710  40   0
360      -214286  30 1160  30   0
361       340000  40  710  40   0
362      -218487  30 1160  30   0
363       351351  50  690  50   0
364      -222689  30 1160  30   0
365       358108  50  690  50   0
366      -226891  30 1160  30   0
367       364865  50  690  50   0
368      -231092  30 1160  30   0
369       371622  50  690  50   0
370      -235294  30 1160  30   0
371       378378  50  690  50   0
372      -239496  30 1160  30   0
373       385135  50  690  50   0
374      -243697  30 1160  30   0
375       391892  50  690  50   0
376      -247899  30 1160  30   0
377       398649  50  690  50   0
378      -252101  30 1160  30   0
379       405405  50  690  50   0
380      -258475  40 1140  40   0
381       412162  50  690  50   0
382      -262712  40 1140  40   0
383       418919  50  690  50   0
384      -266949  40 1140  40   0
385       425676  50  690  50   0
386      -271186  40 1140  40   0
387       438356  60  670  60   0
388      -275424  40 1140  40   0
389       445205  60  670  60   0
390      -279661  40 1140  40   0
391       452055  60  670  60   0
392      -283898  40 1140  40   0
393       458904  60  670  60   0
394      -288136  40 1140  40   0
395       465753  60  670  60   0
396      -292373  40 1140  40   0
397       472603  60  670  60   0
398      -296610  40 1140  40   0
399       479452  60  670  60   0
400      -300847  40 1140  40   0
401       486301  60  670  60   0
402      -305085  40 1140  40   0
403       493151  60  670  60   0
404      -309322  40 1140  40   0
405       500000  60  670  60   0
406      -313559  40 1140  40   0
407       506849  60  670  60   0
408      -317797  40 1140  40   0
409       520833  70  650  70   0
410      -322034  40 1140  40   0
411       527778  70  650  70   0
412      -326271  40 1140  40   0
413       534722  70  650  70   0
414      -330508  40 1140  40   0
415       541667  70  650  70   0
416      -334746  40 1140  40   0
417       548611  70  650  70   0
418      -338983  40 1140  40   0
419       555556  70  650  70   0
420      -346154  50 1120  50   0
421       562500  70  650  70   0
422      -350427  50 1120  50   0
423       569444  70  650  70   0
424      -354701  50 1120  50   0
425       576389  70  650  70   0
426      -358974  50 1120  50   0
427       583333  70  650  70   0
428      -363248  50 1120  50   0
429       590278  70  650  70   0
430      -367521  50 1120  50   0
431       605634  80  630  80   0
432      -371795  50 1120  50   0
433       612676  80  630  80   0
434      -376068  50 1120  50   0
435       619718  80  630  80   0
436      -380342  50 1120  50   0
437       626761  80  630  80   0
438      -384615  50 1120  50   0
439       633803  80  630  80   0
440      -388889  50 1120  50   0
441       640845  80  630  80   0
442      -393162  50 1120  50   0
443       647887  80  630  80   0
444      -397436  50 1120  50   0
445       654930  80  630  80   0
446      -401709  50 1120  50   0
