# Pulseq sequence file
# Created by PyPulseq

[VERSION]
major 1
minor 4
revision 0

[DEFINITIONS]
AdcRasterTime 1e-07 
Bandwidth 280 Hz/px 
BlockDurationRaster 1e-05 
FOV 0.2 0.2 0.008 
GradientRasterTime 1e-05 
RadiofrequencyRasterTime 1e-06 
TotalDuration 14.7004 

# Format of blocks:
# NUM DUR RF  GX  GY  GZ  ADC  EXT
[BLOCKS]
   1 499940   0   0   0   0  0  0
   2 112   1   0   0   0  0  0
   3  10   0   0   0   0  0  0
   4  58   0   0   0   0  0  0
   5 89470   0   0   0   0  0  0
   6 300   0   1   1   2  0  0
   7   4   0   0   0   0  0  0
   8  36   0   0   0   3  0  0
   9 116   2   0   0   4  0  0
  10  36   0   0   0   3  0  0
  11  48   0   0   0   0  0  0
  12  84   0   5   0   0  0  0
  13 367   0   6   0   0  0  0
  14 116   0   7   0   0  0  0
  15  10   0   0   0   0  0  0
  16  36   0   0   0   3  0  0
  17 116   3   0   0   4  0  0
  18  36   0   0   0   3  0  0
  19  48   0   0   0   0  0  0
  20  84   0   5   0   0  0  0
  21 367   0   6   0   0  0  0
  22 116   0   7   0   0  0  0
  23  10   0   0   0   0  0  0
  24  36   0   0   0   3  0  0
  25 116   4   0   0   4  0  0
  26  36   0   0   0   3  0  0
  27  48   0   0   0   0  0  0
  28  84   0   5   0   0  0  0
  29 367   0   6   0   0  0  0
  30 116   0   7   0   0  0  0
  31  10   0   0   0   0  0  0
  32  36   0   0   0   3  0  0
  33 116   5   0   0   4  0  0
  34  36   0   0   0   3  0  0
  35  48   0   0   0   0  0  0
  36  84   0   5   0   0  0  0
  37 367   0   6   0   0  0  0
  38 116   0   7   0   0  0  0
  39  10   0   0   0   0  0  0
  40  36   0   0   0   3  0  0
  41 116   6   0   0   4  0  0
  42  36   0   0   0   3  0  0
  43  48   0   0   0   0  0  0
  44  84   0   5   0   0  0  0
  45 367   0   6   0   0  0  0
  46 116   0   7   0   0  0  0
  47  10   0   0   0   0  0  0
  48  36   0   0   0   3  0  0
  49 116   7   0   0   4  0  0
  50  36   0   0   0   3  0  0
  51  48   0   0   0   0  0  0
  52  84   0   5   0   0  0  0
  53 367   0   6   0   0  0  0
  54 116   0   7   0   0  0  0
  55  10   0   0   0   0  0  0
  56  36   0   0   0   3  0  0
  57 116   8   0   0   4  0  0
  58  36   0   0   0   3  0  0
  59  48   0   0   0   0  0  0
  60  84   0   5   0   0  0  0
  61 367   0   6   0   0  0  0
  62 116   0   7   0   0  0  0
  63  10   0   0   0   0  0  0
  64  36   0   0   0   3  0  0
  65 116   9   0   0   4  0  0
  66  36   0   0   0   3  0  0
  67  48   0   0   0   0  0  0
  68  84   0   5   0   0  0  0
  69 367   0   6   0   0  0  0
  70 116   0   7   0   0  0  0
  71  10   0   0   0   0  0  0
  72  36   0   0   0   3  0  0
  73 116   5   0   0   4  0  0
  74  36   0   0   0   3  0  0
  75  48   0   0   0   0  0  0
  76  84   0   5   0   0  0  0
  77 367   0   6   0   0  0  0
  78 116   0   7   0   0  0  0
  79  10   0   0   0   0  0  0
  80  36   0   0   0   3  0  0
  81 116   7   0   0   4  0  0
  82  36   0   0   0   3  0  0
  83  48   0   0   0   0  0  0
  84  84   0   5   0   0  0  0
  85 367   0   6   0   0  0  0
  86 116   0   7   0   0  0  0
  87  10   0   0   0   0  0  0
  88  36   0   0   0   3  0  0
  89 116  10   0   0   4  0  0
  90  36   0   0   0   3  0  0
  91  48   0   0   0   0  0  0
  92  84   0   5   0   0  0  0
  93 367   0   6   0   0  0  0
  94 116   0   7   0   0  0  0
  95  10   0   0   0   0  0  0
  96  36   0   0   0   3  0  0
  97 116   5   0   0   4  0  0
  98  36   0   0   0   3  0  0
  99  48   0   0   0   0  0  0
 100  84   0   5   0   0  0  0
 101 367   0   6   0   0  0  0
 102 116   0   7   0   0  0  0
 103  10   0   0   0   0  0  0
 104  36   0   0   0   3  0  0
 105 116  11   0   0   4  0  0
 106  36   0   0   0   3  0  0
 107  48   0   0   0   0  0  0
 108  84   0   5   0   0  0  0
 109 367   0   6   0   0  0  0
 110 116   0   7   0   0  0  0
 111  10   0   0   0   0  0  0
 112  36   0   0   0   3  0  0
 113 116   3   0   0   4  0  0
 114  36   0   0   0   3  0  0
 115  48   0   0   0   0  0  0
 116  84   0   5   0   0  0  0
 117 367   0   6   0   0  0  0
 118 116   0   7   0   0  0  0
 119  10   0   0   0   0  0  0
 120  36   0   0   0   3  0  0
 121 116   7   0   0   4  0  0
 122  36   0   0   0   3  0  0
 123  48   0   0   0   0  0  0
 124  84   0   5   0   0  0  0
 125 367   0   6   0   0  0  0
 126 116   0   7   0   0  0  0
 127  10   0   0   0   0  0  0
 128  36   0   0   0   3  0  0
 129 116  12   0   0   4  0  0
 130  36   0   0   0   3  0  0
 131  48   0   0   0   0  0  0
 132  84   0   5   0   0  0  0
 133 367   0   6   0   0  0  0
 134 116   0   7   0   0  0  0
 135  10   0   0   0   0  0  0
 136  36   0   0   0   3  0  0
 137 116  13   0   0   4  0  0
 138  36   0   0   0   3  0  0
 139  48   0   0   0   0  0  0
 140  84   0   5   0   0  0  0
 141 367   0   6   0   0  0  0
 142 116   0   7   0   0  0  0
 143  10   0   0   0   0  0  0
 144  36   0   0   0   3  0  0
 145 116   4   0   0   4  0  0
 146  36   0   0   0   3  0  0
 147  48   0   0   0   0  0  0
 148  84   0   5   0   0  0  0
 149 367   0   6   0   0  0  0
 150 116   0   7   0   0  0  0
 151  10   0   0   0   0  0  0
 152  36   0   0   0   3  0  0
 153 116   8   0   0   4  0  0
 154  36   0   0   0   3  0  0
 155  48   0   0   0   0  0  0
 156  84   0   5   0   0  0  0
 157 367   0   6   0   0  0  0
 158 116   0   7   0   0  0  0
 159  10   0   0   0   0  0  0
 160  36   0   0   0   3  0  0
 161 116   6   0   0   4  0  0
 162  36   0   0   0   3  0  0
 163  48   0   0   0   0  0  0
 164  84   0   5   0   0  0  0
 165 367   0   6   0   0  0  0
 166 116   0   7   0   0  0  0
 167  10   0   0   0   0  0  0
 168  36   0   0   0   3  0  0
 169 116  12   0   0   4  0  0
 170  36   0   0   0   3  0  0
 171  48   0   0   0   0  0  0
 172  84   0   5   0   0  0  0
 173 367   0   6   0   0  0  0
 174 116   0   7   0   0  0  0
 175  10   0   0   0   0  0  0
 176  36   0   0   0   3  0  0
 177 116   8   0   0   4  0  0
 178  36   0   0   0   3  0  0
 179  48   0   0   0   0  0  0
 180  84   0   5   0   0  0  0
 181 367   0   6   0   0  0  0
 182 116   0   7   0   0  0  0
 183  10   0   0   0   0  0  0
 184  36   0   0   0   3  0  0
 185 116  14   0   0   4  0  0
 186  36   0   0   0   3  0  0
 187  48   0   0   0   0  0  0
 188  84   0   5   0   0  0  0
 189 367   0   6   0   0  0  0
 190 116   0   7   0   0  0  0
 191  10   0   0   0   0  0  0
 192  36   0   0   0   3  0  0
 193 116   5   0   0   4  0  0
 194  36   0   0   0   3  0  0
 195  48   0   0   0   0  0  0
 196  84   0   5   0   0  0  0
 197 367   0   6   0   0  0  0
 198 116   0   7   0   0  0  0
 199  10   0   0   0   0  0  0
 200  36   0   0   0   3  0  0
 201 116  12   0   0   4  0  0
 202  36   0   0   0   3  0  0
 203  48   0   0   0   0  0  0
 204  84   0   5   0   0  0  0
 205 367   0   6   0   0  0  0
 206 116   0   7   0   0  0  0
 207  10   0   0   0   0  0  0
 208  36   0   0   0   3  0  0
 209 116  10   0   0   4  0  0
 210  36   0   0   0   3  0  0
 211  48   0   0   0   0  0  0
 212  84   0   5   0   0  0  0
 213 367   0   6   0   0  0  0
 214 116   0   7   0   0  0  0
 215  10   0   0   0   0  0  0
 216  36   0   0   0   3  0  0
 217 116   8   0   0   4  0  0
 218  36   0   0   0   3  0  0
 219  48   0   0   0   0  0  0
 220  84   0   5   0   0  0  0
 221 367   0   6   0   0  0  0
 222 116   0   7   0   0  0  0
 223  10   0   0   0   0  0  0
 224  36   0   0   0   3  0  0
 225 116  11   0   0   4  0  0
 226  36   0   0   0   3  0  0
 227  48   0   0   0   0  0  0
 228  84   0   5   0   0  0  0
 229 367   0   6   0   0  0  0
 230 116   0   7   0   0  0  0
 231  10   0   0   0   0  0  0
 232  36   0   0   0   3  0  0
 233 116  13   0   0   4  0  0
 234  36   0   0   0   3  0  0
 235  48   0   0   0   0  0  0
 236  84   0   5   0   0  0  0
 237 367   0   6   0   0  0  0
 238 116   0   7   0   0  0  0
 239  10   0   0   0   0  0  0
 240  36   0   0   0   3  0  0
 241 116   7   0   0   4  0  0
 242  36   0   0   0   3  0  0
 243  48   0   0   0   0  0  0
 244  84   0   5   0   0  0  0
 245 367   0   6   0   0  0  0
 246 116   0   7   0   0  0  0
 247  10   0   0   0   0  0  0
 248  36   0   0   0   3  0  0
 249 116   7   0   0   4  0  0
 250  36   0   0   0   3  0  0
 251  48   0   0   0   0  0  0
 252  84   0   5   0   0  0  0
 253 367   0   6   0   0  0  0
 254 116   0   7   0   0  0  0
 255  10   0   0   0   0  0  0
 256  36   0   0   0   3  0  0
 257 116  13   0   0   4  0  0
 258  36   0   0   0   3  0  0
 259  48   0   0   0   0  0  0
 260  84   0   5   0   0  0  0
 261 367   0   6   0   0  0  0
 262 116   0   7   0   0  0  0
 263  10   0   0   0   0  0  0
 264  36   0   0   0   3  0  0
 265 116  11   0   0   4  0  0
 266  36   0   0   0   3  0  0
 267  48   0   0   0   0  0  0
 268  84   0   5   0   0  0  0
 269 367   0   6   0   0  0  0
 270 116   0   7   0   0  0  0
 271  10   0   0   0   0  0  0
 272  36   0   0   0   3  0  0
 273 116   8   0   0   4  0  0
 274  36   0   0   0   3  0  0
 275  48   0   0   0   0  0  0
 276  84   0   5   0   0  0  0
 277 367   0   6   0   0  0  0
 278 116   0   7   0   0  0  0
 279  10   0   0   0   0  0  0
 280  36   0   0   0   3  0  0
 281 116  10   0   0   4  0  0
 282  36   0   0   0   3  0  0
 283  48   0   0   0   0  0  0
 284  84   0   5   0   0  0  0
 285 367   0   6   0   0  0  0
 286 116   0   7   0   0  0  0
 287  10   0   0   0   0  0  0
 288  36   0   0   0   3  0  0
 289 116  12   0   0   4  0  0
 290  36   0   0   0   3  0  0
 291  48   0   0   0   0  0  0
 292  84   0   5   0   0  0  0
 293 367   0   6   0   0  0  0
 294 116   0   7   0   0  0  0
 295  10   0   0   0   0  0  0
 296  36   0   0   0   3  0  0
 297 116   5   0   0   4  0  0
 298  36   0   0   0   3  0  0
 299  48   0   0   0   0  0  0
 300  84   0   5   0   0  0  0
 301 367   0   6   0   0  0  0
 302 116   0   7   0   0  0  0
 303  10   0   0   0   0  0  0
 304  36   0   0   0   3  0  0
 305 116  14   0   0   4  0  0
 306  36   0   0   0   3  0  0
 307  48   0   0   0   0  0  0
 308  84   0   5   0   0  0  0
 309 367   0   6   0   0  0  0
 310 116   0   7   0   0  0  0
 311  10   0   0   0   0  0  0
[RF]
1          500 1 2 3 100 0 0
2      98.7447 4 5 0 100 0 1.46608
3      98.7447 4 5 0 100 0 2.93215
4      98.7447 4 5 0 100 0 5.86431
5      98.7447 4 5 0 100 0 3.97935
6      98.7447 4 5 0 100 0 3.56047
7      98.7447 4 5 0 100 0 4.60767
8      98.7447 4 5 0 100 0 0.837758
9      98.7447 4 5 0 100 0 4.81711
10      98.7447 4 5 0 100 0 0.418879
11      98.7447 4 5 0 100 0 2.72271
12      98.7447 4 5 0 100 0 1.46608
13      98.7447 4 5 0 100 0 6.07375
14      98.7447 4 5 0 100 0 1.67552
15          500 1 2 3 100 0 0

# Format of trapezoid gradients:
# id amplitude rise flat fall delay
# ..      Hz/m   us   us   us    us
[TRAP]
 1       885813 110 2780 110   0
 2       337838  40 2920  40   0
 3 -1.47222e+06 180    0 180   0
 4       500000  60 1000  60  40
 5      -892416 110  620 110   0
 6       358543  50 3570  50   0
 7  1.04712e+06 130  900 130   0
 8      -876712 110  620 110   0
 9       587156  70 1020  70   0
10      -851351 100  640 100   0
11       577982  70 1020  70   0
12      -837838 100  640 100   0
13       568807  70 1020  70   0
14      -824324 100  640 100   0
15       559633  70 1020  70   0
16      -810811 100  640 100   0
17       550459  70 1020  70   0
18      -797297 100  640 100   0
19       541284  70 1020  70   0
20      -783784 100  640 100   0
21       532110  70 1020  70   0
22      -760000  90  660  90   0
23       522936  70 1020  70   0
24      -746667  90  660  90   0
25       509091  60 1040  60   0
26      -733333  90  660  90   0
27       500000  60 1040  60   0
28      -720000  90  660  90   0
29       490909  60 1040  60   0
30      -706667  90  660  90   0
31       481818  60 1040  60   0
32      -693333  90  660  90   0
33       472727  60 1040  60   0
34      -671053  80  680  80   0
35       463636  60 1040  60   0
36      -657895  80  680  80   0
37       454545  60 1040  60   0
38      -644737  80  680  80   0
39       445455  60 1040  60   0
40      -631579  80  680  80   0
41       436364  60 1040  60   0
42      -618421  80  680  80   0
43       423423  50 1060  50   0
44      -605263  80  680  80   0
45       414414  50 1060  50   0
46      -584416  70  700  70   0
47       405405  50 1060  50   0
48      -571429  70  700  70   0
49       396396  50 1060  50   0
50      -558442  70  700  70   0
51       387387  50 1060  50   0
52      -545455  70  700  70   0
53       378378  50 1060  50   0
54      -532468  70  700  70   0
55       369369  50 1060  50   0
56      -519481  70  700  70   0
57       360360  50 1060  50   0
58      -500000  60  720  60   0
59       351351  50 1060  50   0
60      -487179  60  720  60   0
61       339286  40 1080  40   0
62      -474359  60  720  60   0
63       330357  40 1080  40   0
64      -461538  60  720  60   0
65       321429  40 1080  40   0
66      -448718  60  720  60   0
67       312500  40 1080  40   0
68      -435897  60  720  60   0
69       303571  40 1080  40   0
70      -417722  50  740  50   0
71       294643  40 1080  40   0
72      -405063  50  740  50   0
73       285714  40 1080  40   0
74      -392405  50  740  50   0
75       276786  40 1080  40   0
76      -379747  50  740  50   0
77       267857  40 1080  40   0
78      -367089  50  740  50   0
79       258929  40 1080  40   0
80      -354430  50  740  50   0
81       247788  30 1100  30   0
82      -337500  40  760  40   0
83       238938  30 1100  30   0
84      -325000  40  760  40   0
85       230088  30 1100  30   0
86      -312500  40  760  40   0
87       221239  30 1100  30   0
88      -300000  40  760  40   0
89       212389  30 1100  30   0
90      -287500  40  760  40   0
91       203540  30 1100  30   0
92      -275000  40  760  40   0
93       194690  30 1100  30   0
94      -262500  40  760  40   0
95       185841  30 1100  30   0
96      -246914  30  780  30   0
97       176991  30 1100  30   0
98      -234568  30  780  30   0
99       166667  20 1120  20   0
100      -222222  30  780  30   0
101       157895  20 1120  20   0
102      -209877  30  780  30   0
103       149123  20 1120  20   0
104      -197531  30  780  30   0
105       140351  20 1120  20   0
106      -185185  30  780  30   0
107       131579  20 1120  20   0
108      -172840  30  780  30   0
109       122807  20 1120  20   0
110      -158537  20  800  20   0
111       114035  20 1120  20   0
112      -146341  20  800  20   0
113       105263  20 1120  20   0
114      -134146  20  800  20   0
115      96491.2  20 1120  20   0
116      -121951  20  800  20   0
117      87719.3  20 1120  20   0
118      -109756  20  800  20   0
119      78260.9  10 1140  10   0
120       -97561  20  800  20   0
121      69565.2  10 1140  10   0
122     -84337.3  10  820  10   0
123      60869.6  10 1140  10   0
124     -72289.2  10  820  10   0
125      52173.9  10 1140  10   0
126       -60241  10  820  10   0
127      43478.3  10 1140  10   0
128     -48192.8  10  820  10   0
129      34782.6  10 1140  10   0
130     -36144.6  10  820  10   0
131        26087  10 1140  10   0
132     -24096.4  10  820  10   0
133      17391.3  10 1140  10   0
134     -12048.2  10  820  10   0
135      8695.65  10 1140  10   0
136      12048.2  10  820  10   0
137     -8695.65  10 1140  10   0
138      24096.4  10  820  10   0
139     -17391.3  10 1140  10   0
140      36144.6  10  820  10   0
141       -26087  10 1140  10   0
142      48192.8  10  820  10   0
143     -34782.6  10 1140  10   0
144        60241  10  820  10   0
145     -43478.3  10 1140  10   0
146      72289.2  10  820  10   0
147     -52173.9  10 1140  10   0
148      84337.3  10  820  10   0
149     -60869.6  10 1140  10   0
150        97561  20  800  20   0
151     -69565.2  10 1140  10   0
152       109756  20  800  20   0
153     -78260.9  10 1140  10   0
154       121951  20  800  20   0
155     -87719.3  20 1120  20   0
156       134146  20  800  20   0
157     -96491.2  20 1120  20   0
158       146341  20  800  20   0
159      -105263  20 1120  20   0
160       158537  20  800  20   0
161      -114035  20 1120  20   0
162       172840  30  780  30   0
163      -122807  20 1120  20   0
164       185185  30  780  30   0
165      -131579  20 1120  20   0
166       197531  30  780  30   0
167      -140351  20 1120  20   0
168       209877  30  780  30   0
169      -149123  20 1120  20   0
170       222222  30  780  30   0
171      -157895  20 1120  20   0
172       234568  30  780  30   0
173      -166667  20 1120  20   0
174       246914  30  780  30   0
175      -176991  30 1100  30   0
176       262500  40  760  40   0
177      -185841  30 1100  30   0
178       275000  40  760  40   0
179      -194690  30 1100  30   0
180       287500  40  760  40   0
181      -203540  30 1100  30   0
182       300000  40  760  40   0
183      -212389  30 1100  30   0
184       312500  40  760  40   0
185      -221239  30 1100  30   0
186       325000  40  760  40   0
187      -230088  30 1100  30   0
188       337500  40  760  40   0
189      -238938  30 1100  30   0
190       354430  50  740  50   0
191      -247788  30 1100  30   0
192       367089  50  740  50   0
193      -258929  40 1080  40   0
194       379747  50  740  50   0
195      -267857  40 1080  40   0
196       392405  50  740  50   0
197      -276786  40 1080  40   0
198       405063  50  740  50   0
199      -285714  40 1080  40   0
200       417722  50  740  50   0
201      -294643  40 1080  40   0
202       435897  60  720  60   0
203      -303571  40 1080  40   0
204       448718  60  720  60   0
205      -312500  40 1080  40   0
206       461538  60  720  60   0
207      -321429  40 1080  40   0
208       474359  60  720  60   0
209      -330357  40 1080  40   0
210       487179  60  720  60   0
211      -339286  40 1080  40   0
212       500000  60  720  60   0
213      -351351  50 1060  50   0
214       519481  70  700  70   0
215      -360360  50 1060  50   0
216       532468  70  700  70   0
217      -369369  50 1060  50   0
218       545455  70  700  70   0
219      -378378  50 1060  50   0
220       558442  70  700  70   0
221      -387387  50 1060  50   0
222       571429  70  700  70   0
223      -396396  50 1060  50   0
224       584416  70  700  70   0
225      -405405  50 1060  50   0
226       605263  80  680  80   0
227      -414414  50 1060  50   0
228       618421  80  680  80   0
229      -423423  50 1060  50   0
230       631579  80  680  80   0
231      -436364  60 1040  60   0
232       644737  80  680  80   0
233      -445455  60 1040  60   0
234       657895  80  680  80   0
235      -454545  60 1040  60   0
236       671053  80  680  80   0
237      -463636  60 1040  60   0
238       693333  90  660  90   0
239      -472727  60 1040  60   0
240       706667  90  660  90   0
241      -481818  60 1040  60   0
242       720000  90  660  90   0
243      -490909  60 1040  60   0
244       733333  90  660  90   0
245      -500000  60 1040  60   0
246       746667  90  660  90   0
247      -509091  60 1040  60   0
248       760000  90  660  90   0
249      -522936  70 1020  70   0
250       783784 100  640 100   0
251      -532110  70 1020  70   0
252       797297 100  640 100   0
253      -541284  70 1020  70   0
254       810811 100  640 100   0
255      -550459  70 1020  70   0
256       824324 100  640 100   0
257      -559633  70 1020  70   0
258       837838 100  640 100   0
259      -568807  70 1020  70   0
260       851351 100  640 100   0
261      -577982  70 1020  70   0
262      -869863 110  620 110   0
263       582569  70 1020  70   0
264      -844595 100  640 100   0
265       573394  70 1020  70   0
266      -831081 100  640 100   0
267       564220  70 1020  70   0
268      -817568 100  640 100   0
269       555046  70 1020  70   0
270      -804054 100  640 100   0
271       545872  70 1020  70   0
272      -790541 100  640 100   0
273       536697  70 1020  70   0
274      -777027 100  640 100   0
275       527523  70 1020  70   0
276      -753333  90  660  90   0
277       518349  70 1020  70   0
278      -740000  90  660  90   0
279       504545  60 1040  60   0
280      -726667  90  660  90   0
281       495455  60 1040  60   0
282      -713333  90  660  90   0
283       486364  60 1040  60   0
284      -700000  90  660  90   0
285       477273  60 1040  60   0
286      -677632  80  680  80   0
287       468182  60 1040  60   0
288      -664474  80  680  80   0
289       459091  60 1040  60   0
290      -651316  80  680  80   0
291       450000  60 1040  60   0
292      -638158  80  680  80   0
293       440909  60 1040  60   0
294      -625000  80  680  80   0
295       431818  60 1040  60   0
296      -611842  80  680  80   0
297       418919  50 1060  50   0
298      -590909  70  700  70   0
299       409910  50 1060  50   0
300      -577922  70  700  70   0
301       400901  50 1060  50   0
302      -564935  70  700  70   0
303       391892  50 1060  50   0
304      -551948  70  700  70   0
305       382883  50 1060  50   0
306      -538961  70  700  70   0
307       373874  50 1060  50   0
308      -525974  70  700  70   0
309       364865  50 1060  50   0
310      -506410  60  720  60   0
311       355856  50 1060  50   0
312      -493590  60  720  60   0
313       346847  50 1060  50   0
314      -480769  60  720  60   0
315       334821  40 1080  40   0
316      -467949  60  720  60   0
317       325893  40 1080  40   0
318      -455128  60  720  60   0
319       316964  40 1080  40   0
320      -442308  60  720  60   0
321       308036  40 1080  40   0
322      -424051  50  740  50   0
323       299107  40 1080  40   0
324      -411392  50  740  50   0
325       290179  40 1080  40   0
326      -398734  50  740  50   0
327       281250  40 1080  40   0
328      -386076  50  740  50   0
329       272321  40 1080  40   0
330      -373418  50  740  50   0
331       263393  40 1080  40   0
332      -360759  50  740  50   0
333       252212  30 1100  30   0
334      -348101  50  740  50   0
335       243363  30 1100  30   0
336      -331250  40  760  40   0
337       234513  30 1100  30   0
338      -318750  40  760  40   0
339       225664  30 1100  30   0
340      -306250  40  760  40   0
341       216814  30 1100  30   0
342      -293750  40  760  40   0
343       207965  30 1100  30   0
344      -281250  40  760  40   0
345       199115  30 1100  30   0
346      -268750  40  760  40   0
347       190265  30 1100  30   0
348      -253086  30  780  30   0
349       181416  30 1100  30   0
350      -240741  30  780  30   0
351       172566  30 1100  30   0
352      -228395  30  780  30   0
353       162281  20 1120  20   0
354      -216049  30  780  30   0
355       153509  20 1120  20   0
356      -203704  30  780  30   0
357       144737  20 1120  20   0
358      -191358  30  780  30   0
359       135965  20 1120  20   0
360      -179012  30  780  30   0
361       127193  20 1120  20   0
362      -164634  20  800  20   0
363       118421  20 1120  20   0
364      -152439  20  800  20   0
365       109649  20 1120  20   0
366      -140244  20  800  20   0
367       100877  20 1120  20   0
368      -128049  20  800  20   0
369      92105.3  20 1120  20   0
370      -115854  20  800  20   0
371      82608.7  10 1140  10   0
372      -103659  20  800  20   0
373        73913  10 1140  10   0
374     -91463.4  20  800  20   0
375      65217.4  10 1140  10   0
376     -78313.3  10  820  10   0
377      56521.7  10 1140  10   0
378     -66265.1  10  820  10   0
379      47826.1  10 1140  10   0
380     -54216.9  10  820  10   0
381      39130.4  10 1140  10   0
382     -42168.7  10  820  10   0
383      30434.8  10 1140  10   0
384     -30120.5  10  820  10   0
385      21739.1  10 1140  10   0
386     -18072.3  10  820  10   0
387      13043.5  10 1140  10   0
388      -6024.1  10  820  10   0
389      4347.83  10 1140  10   0
390       6024.1  10  820  10   0
391     -4347.83  10 1140  10   0
392      18072.3  10  820  10   0
393     -13043.5  10 1140  10   0
394      30120.5  10  820  10   0
395     -21739.1  10 1140  10   0
396      42168.7  10  820  10   0
397     -30434.8  10 1140  10   0
398      54216.9  10  820  10   0
399     -39130.4  10 1140  10   0
400      66265.1  10  820  10   0
401     -47826.1  10 1140  10   0
402      78313.3  10  820  10   0
403     -56521.7  10 1140  10   0
404      91463.4  20  800  20   0
405     -65217.4  10 1140  10   0
406       103659  20  800  20   0
407       -73913  10 1140  10   0
408       115854  20  800  20   0
409     -82608.7  10 1140  10   0
410       128049  20  800  20   0
411     -92105.3  20 1120  20   0
412       140244  20  800  20   0
413      -100877  20 1120  20   0
414       152439  20  800  20   0
415      -109649  20 1120  20   0
416       164634  20  800  20   0
417      -118421  20 1120  20   0
418       179012  30  780  30   0
419      -127193  20 1120  20   0
420       191358  30  780  30   0
421      -135965  20 1120  20   0
422       203704  30  780  30   0
423      -144737  20 1120  20   0
424       216049  30  780  30   0
425      -153509  20 1120  20   0
426       228395  30  780  30   0
427      -162281  20 1120  20   0
428       240741  30  780  30   0
429      -172566  30 1100  30   0
430       253086  30  780  30   0
431      -181416  30 1100  30   0
432       268750  40  760  40   0
433      -190265  30 1100  30   0
434       281250  40  760  40   0
435      -199115  30 1100  30   0
436       293750  40  760  40   0
437      -207965  30 1100  30   0
438       306250  40  760  40   0
439      -216814  30 1100  30   0
440       318750  40  760  40   0
441      -225664  30 1100  30   0
442       331250  40  760  40   0
443      -234513  30 1100  30   0
444       348101  50  740  50   0
445      -243363  30 1100  30   0
446       360759  50  740  50   0
447      -252212  30 1100  30   0
448       373418  50  740  50   0
449      -263393  40 1080  40   0
450       386076  50  740  50   0
451      -272321  40 1080  40   0
452       398734  50  740  50   0
453      -281250  40 1080  40   0
454       411392  50  740  50   0
455      -290179  40 1080  40   0
456       424051  50  740  50   0
457      -299107  40 1080  40   0
458       442308  60  720  60   0
459      -308036  40 1080  40   0
460       455128  60  720  60   0
461      -316964  40 1080  40   0
462       467949  60  720  60   0
463      -325893  40 1080  40   0
464       480769  60  720  60   0
465      -334821  40 1080  40   0
466       493590  60  720  60   0
467      -346847  50 1060  50   0
468       506410  60  720  60   0
469      -355856  50 1060  50   0
470       525974  70  700  70   0
471      -364865  50 1060  50   0
472       538961  70  700  70   0
473      -373874  50 1060  50   0
474       551948  70  700  70   0
475      -382883  50 1060  50   0
476       564935  70  700  70   0
477      -391892  50 1060  50   0
478       577922  70  700  70   0
479      -400901  50 1060  50   0
480       590909  70  700  70   0
481      -409910  50 1060  50   0
482       611842  80  680  80   0
483      -418919  50 1060  50   0
484       625000  80  680  80   0
485      -431818  60 1040  60   0
486       638158  80  680  80   0
487      -440909  60 1040  60   0
488       651316  80  680  80   0
489      -450000  60 1040  60   0
490       664474  80  680  80   0
491      -459091  60 1040  60   0
492       677632  80  680  80   0
493      -468182  60 1040  60   0
494       700000  90  660  90   0
495      -477273  60 1040  60   0
496       713333  90  660  90   0
497      -486364  60 1040  60   0
498       726667  90  660  90   0
499      -495455  60 1040  60   0
500       740000  90  660  90   0
501      -504545  60 1040  60   0
502       753333  90  660  90   0
503      -518349  70 1020  70   0
504       777027 100  640 100   0
505      -527523  70 1020  70   0
506       790541 100  640 100   0
507      -536697  70 1020  70   0
508       804054 100  640 100   0
509      -545872  70 1020  70   0
510       817568 100  640 100   0
511      -555046  70 1020  70   0
512       831081 100  640 100   0
513      -564220  70 1020  70   0
514       844595 100  640 100   0
515      -573394  70 1020  70   0
516       869863 110  620 110   0
517      -582569  70 1020  70   0

# Format of ADC events:
# id num dwell delay freq phase
# ..  ..    ns    us   Hz   rad
[ADC]
1 256 13900 50 0 1.46608
2 256 13900 50 0 2.93215
3 256 13900 50 0 5.86431
4 256 13900 50 0 3.97935
5 256 13900 50 0 3.56047
6 256 13900 50 0 4.60767
7 256 13900 50 0 0.837758
8 256 13900 50 0 4.81711
9 256 13900 50 0 0.418879
10 256 13900 50 0 2.72271
11 256 13900 50 0 6.07375
12 256 13900 50 0 1.67552

# Sequence Shapes
[SHAPES]

shape_id 1
num_samples 2
1
1

shape_id 2
num_samples 2
0
0

shape_id 3
num_samples 2
0
1000

shape_id 4
num_samples 1000
2.46987503e-09
6.68164436e-08
3.09920458e-07
8.51983185e-07
1.8139994e-06
3.31769462e-06
5.48546172e-06
8.44029687e-06
1.23057349e-05
1.72057839e-05
2.32648598e-05
3.06077193e-05
3.93593938e-05
4.96451212e-05
6.15902785e-05
7.53203133e-05
9.0960675e-05
0.000108636746
0.00012847377
0.000150596786
0.000175130554
0.000202199487
0.000231927578
0.000264438332
0.00029985469
0.000338298962
0.00037989275
0.000424756882
0.000473011336
0.000524775166
0.000580166435
0.000639302138
0.000702298131
0.000769269059
0.000840328283
0.000915587807
0.000995158206
0.00107914855
0.00116766635
0.00126081745
0.001358706
0.00146143433
0.00156910294
0.00168181038
0.00179965321
0.0019227259
0.00205112078
0.00218492798
0.00232423533
0.00246912832
0.00261969001
0.00277600097
0.00293813921
0.00310618011
0.00328019639
0.00346025796
0.00364643195
0.00383878258
0.00403737111
0.0042422558
0.00445349183
0.00467113121
0.00489522278
0.00512581209
0.00536294137
0.00560664948
0.00585697182
0.00611394028
0.00637758323
0.00664792539
0.00692498783
0.00720878789
0.00749933914
0.00779665132
0.0081007303
0.00841157802
0.00872919243
0.00905356747
0.00938469301
0.00972255481
0.0100671344
0.0104184093
0.0107763526
0.011140933
0.0115121153
0.0118898595
0.0122741214
0.0126648523
0.0130619991
0.0134655042
0.0138753055
0.014291336
0.0147135246
0.0151417953
