# Pulseq sequence file

[VERSION]
major 1
minor 3
revision 1post1

[DEFINITIONS]
FOV 0.2 0.2 0.01 
Bandwidth 499 Hz/px 
Total duration 27.49568 

# Format of blocks:
#  #  D RF  GX  GY  GZ ADC EXT
[BLOCKS]
   1  1  0   0   0   0  0  0
   2  0  0   0   0   1  0  0
   3  0  1   0   0   2  0  0
   4  0  0   0   0   1  0  0
   5  2  0   0   0   0  0  0
   6  0  0   3   0   0  0  0
   7  0  0   4   0   0  1  0
   8  0  0   5   0   0  0  0
   9  3  0   0   0   0  0  0
  10  0  0   0   0   1  0  0
  11  0  2   0   0   2  0  0
  12  0  0   0   0   1  0  0
  13  2  0   0   0   0  0  0
  14  0  0   3   6   0  0  0
  15  0  0   4   0   0  2  0
  16  0  0   5   7   0  0  0
  17  3  0   0   0   0  0  0
  18  0  0   0   0   1  0  0
  19  0  3   0   0   2  0  0
  20  0  0   0   0   1  0  0
  21  2  0   0   0   0  0  0
  22  0  0   3   8   0  0  0
  23  0  0   4   0   0  3  0
  24  0  0   5   9   0  0  0
  25  3  0   0   0   0  0  0
  26  0  0   0   0   1  0  0
  27  0  4   0   0   2  0  0
  28  0  0   0   0   1  0  0
  29  2  0   0   0   0  0  0
  30  0  0   3  10   0  0  0
  31  0  0   4   0   0  4  0
  32  0  0   5  11   0  0  0
  33  3  0   0   0   0  0  0
  34  0  0   0   0   1  0  0
  35  0  5   0   0   2  0  0
  36  0  0   0   0   1  0  0
  37  2  0   0   0   0  0  0
  38  0  0   3  12   0  0  0
  39  0  0   4   0   0  5  0
  40  0  0   5  13   0  0  0
  41  3  0   0   0   0  0  0
  42  0  0   0   0   1  0  0
  43  0  6   0   0   2  0  0
  44  0  0   0   0   1  0  0
  45  2  0   0   0   0  0  0
  46  0  0   3  14   0  0  0
  47  0  0   4   0   0  6  0
  48  0  0   5  15   0  0  0
  49  3  0   0   0   0  0  0
  50  0  0   0   0   1  0  0
  51  0  7   0   0   2  0  0
  52  0  0   0   0   1  0  0
  53  2  0   0   0   0  0  0
  54  0  0   3  16   0  0  0
  55  0  0   4   0   0  7  0
  56  0  0   5  17   0  0  0
  57  3  0   0   0   0  0  0
  58  0  0   0   0   1  0  0
  59  0  8   0   0   2  0  0
  60  0  0   0   0   1  0  0
  61  2  0   0   0   0  0  0
  62  0  0   3  18   0  0  0
  63  0  0   4   0   0  8  0
  64  0  0   5  19   0  0  0
  65  3  0   0   0   0  0  0
  66  0  0   0   0   1  0  0
  67  0  9   0   0   2  0  0
  68  0  0   0   0   1  0  0
  69  2  0   0   0   0  0  0
  70  0  0   3  20   0  0  0
  71  0  0   4   0   0  9  0
  72  0  0   5  21   0  0  0
  73  3  0   0   0   0  0  0
  74  0  0   0   0   1  0  0
  75  0 10   0   0   2  0  0
  76  0  0   0   0   1  0  0
  77  2  0   0   0   0  0  0
  78  0  0   3  22   0  0  0
  79  0  0   4   0   0 10  0
  80  0  0   5  23   0  0  0
  81  3  0   0   0   0  0  0
  82  0  0   0   0   1  0  0
  83  0 11   0   0   2  0  0
  84  0  0   0   0   1  0  0
  85  2  0   0   0   0  0  0
  86  0  0   3  24   0  0  0
  87  0  0   4   0   0  6  0
  88  0  0   5  25   0  0  0
  89  3  0   0   0   0  0  0
  90  0  0   0   0   1  0  0
  91  0 12   0   0   2  0  0
  92  0  0   0   0   1  0  0
  93  2  0   0   0   0  0  0
  94  0  0   3  26   0  0  0
  95  0  0   4   0   0 11  0
  96  0  0   5  27   0  0  0
  97  3  0   0   0   0  0  0
  98  0  0   0   0   1  0  0
  99  0 13   0   0   2  0  0
 100  0  0   0   0   1  0  0
 101  2  0   0   0   0  0  0
 102  0  0   3  28   0  0  0
 103  0  0   4   0   0 12  0
 104  0  0   5  29   0  0  0
 105  3  0   0   0   0  0  0
 106  0  0   0   0   1  0  0
 107  0 14   0   0   2  0  0
 108  0  0   0   0   1  0  0
 109  2  0   0   0   0  0  0
 110  0  0   3  30   0  0  0
 111  0  0   4   0   0 13  0
 112  0  0   5  31   0  0  0
 113  3  0   0   0   0  0  0
 114  0  0   0   0   1  0  0
 115  0 15   0   0   2  0  0
 116  0  0   0   0   1  0  0
 117  2  0   0   0   0  0  0
 118  0  0   3  32   0  0  0
 119  0  0   4   0   0 14  0
 120  0  0   5  33   0  0  0
 121  3  0   0   0   0  0  0
 122  0  0   0   0   1  0  0
 123  0 16   0   0   2  0  0
 124  0  0   0   0   1  0  0
 125  2  0   0   0   0  0  0
 126  0  0   3  34   0  0  0
 127  0  0   4   0   0  1  0
 128  0  0   5  35   0  0  0
 129  3  0   0   0   0  0  0
 130  0  0   0   0   1  0  0
 131  0 17   0   0   2  0  0
 132  0  0   0   0   1  0  0
 133  2  0   0   0   0  0  0
 134  0  0   3  36   0  0  0
 135  0  0   4   0   0 15  0
 136  0  0   5  37   0  0  0
 137  3  0   0   0   0  0  0
 138  0  0   0   0   1  0  0
 139  0 18   0   0   2  0  0
 140  0  0   0   0   1  0  0
 141  2  0   0   0   0  0  0
 142  0  0   3  38   0  0  0
 143  0  0   4   0   0 16  0
 144  0  0   5  39   0  0  0
 145  3  0   0   0   0  0  0
 146  0  0   0   0   1  0  0
 147  0 19   0   0   2  0  0
 148  0  0   0   0   1  0  0
 149  2  0   0   0   0  0  0
 150  0  0   3  40   0  0  0
 151  0  0   4   0   0 13  0
 152  0  0   5  41   0  0  0
 153  3  0   0   0   0  0  0
 154  0  0   0   0   1  0  0
 155  0 20   0   0   2  0  0
 156  0  0   0   0   1  0  0
 157  2  0   0   0   0  0  0
 158  0  0   3  42   0  0  0
 159  0  0   4   0   0 17  0
 160  0  0   5  43   0  0  0
 161  3  0   0   0   0  0  0
 162  0  0   0   0   1  0  0
 163  0 21   0   0   2  0  0
 164  0  0   0   0   1  0  0
 165  2  0   0   0   0  0  0
 166  0  0   3  44   0  0  0
 167  0  0   4   0   0  5  0
 168  0  0   5  45   0  0  0
 169  3  0   0   0   0  0  0
 170  0  0   0   0   1  0  0
 171  0 22   0   0   2  0  0
 172  0  0   0   0   1  0  0
 173  2  0   0   0   0  0  0
 174  0  0   3  46   0  0  0
 175  0  0   4   0   0 18  0
 176  0  0   5  47   0  0  0
 177  3  0   0   0   0  0  0
 178  0  0   0   0   1  0  0
 179  0 23   0   0   2  0  0
 180  0  0   0   0   1  0  0
 181  2  0   0   0   0  0  0
 182  0  0   3  48   0  0  0
 183  0  0   4   0   0 19  0
 184  0  0   5  49   0  0  0
 185  3  0   0   0   0  0  0
 186  0  0   0   0   1  0  0
 187  0 24   0   0   2  0  0
 188  0  0   0   0   1  0  0
 189  2  0   0   0   0  0  0
 190  0  0   3  50   0  0  0
 191  0  0   4   0   0  9  0
 192  0  0   5  51   0  0  0
 193  3  0   0   0   0  0  0
 194  0  0   0   0   1  0  0
 195  0 25   0   0   2  0  0
 196  0  0   0   0   1  0  0
 197  2  0   0   0   0  0  0
 198  0  0   3  52   0  0  0
 199  0  0   4   0   0 20  0
 200  0  0   5  53   0  0  0
 201  3  0   0   0   0  0  0
 202  0  0   0   0   1  0  0
 203  0 26   0   0   2  0  0
 204  0  0   0   0   1  0  0
 205  2  0   0   0   0  0  0
 206  0  0   3  54   0  0  0
 207  0  0   4   0   0 10  0
 208  0  0   5  55   0  0  0
 209  3  0   0   0   0  0  0
 210  0  0   0   0   1  0  0
 211  0 27   0   0   2  0  0
 212  0  0   0   0   1  0  0
 213  2  0   0   0   0  0  0
 214  0  0   3  56   0  0  0
 215  0  0   4   0   0 18  0
 216  0  0   5  57   0  0  0
 217  3  0   0   0   0  0  0
 218  0  0   0   0   1  0  0
 219  0 28   0   0   2  0  0
 220  0  0   0   0   1  0  0
 221  2  0   0   0   0  0  0
 222  0  0   3  58   0  0  0
 223  0  0   4   0   0 21  0
 224  0  0   5  59   0  0  0
 225  3  0   0   0   0  0  0
 226  0  0   0   0   1  0  0
 227  0 29   0   0   2  0  0
 228  0  0   0   0   1  0  0
 229  2  0   0   0   0  0  0
 230  0  0   3  60   0  0  0
 231  0  0   4   0   0  4  0
 232  0  0   5  61   0  0  0
 233  3  0   0   0   0  0  0
 234  0  0   0   0   1  0  0
 235  0 30   0   0   2  0  0
 236  0  0   0   0   1  0  0
 237  2  0   0   0   0  0  0
 238  0  0   3  62   0  0  0
 239  0  0   4   0   0 22  0
 240  0  0   5  63   0  0  0
 241  3  0   0   0   0  0  0
 242  0  0   0   0   1  0  0
 243  0 31   0   0   2  0  0
 244  0  0   0   0   1  0  0
 245  2  0   0   0   0  0  0
 246  0  0   3  64   0  0  0
 247  0  0   4   0   0 14  0
 248  0  0   5  65   0  0  0
 249  3  0   0   0   0  0  0
 250  0  0   0   0   1  0  0
 251  0 32   0   0   2  0  0
 252  0  0   0   0   1  0  0
 253  2  0   0   0   0  0  0
 254  0  0   3  66   0  0  0
 255  0  0   4   0   0 15  0
 256  0  0   5  67   0  0  0
 257  3  0   0   0   0  0  0
 258  0  0   0   0   1  0  0
 259  0 33   0   0   2  0  0
 260  0  0   0   0   1  0  0
 261  2  0   0   0   0  0  0
 262  0  0   3  68   0  0  0
 263  0  0   4   0   0 23  0
 264  0  0   5  69   0  0  0
 265  3  0   0   0   0  0  0
 266  0  0   0   0   1  0  0
 267  0 34   0   0   2  0  0
 268  0  0   0   0   1  0  0
 269  2  0   0   0   0  0  0
 270  0  0   3  70   0  0  0
 271  0  0   4   0   0  2  0
 272  0  0   5  71   0  0  0
 273  3  0   0   0   0  0  0
 274  0  0   0   0   1  0  0
 275  0 35   0   0   2  0  0
 276  0  0   0   0   1  0  0
 277  2  0   0   0   0  0  0
 278  0  0   3  72   0  0  0
 279  0  0   4   0   0 22  0
 280  0  0   5  73   0  0  0
 281  3  0   0   0   0  0  0
 282  0  0   0   0   1  0  0
 283  0 36   0   0   2  0  0
 284  0  0   0   0   1  0  0
 285  2  0   0   0   0  0  0
 286  0  0   3  74   0  0  0
 287  0  0   4   0   0 17  0
 288  0  0   5  75   0  0  0
 289  3  0   0   0   0  0  0
 290  0  0   0   0   1  0  0
 291  0 37   0   0   2  0  0
 292  0  0   0   0   1  0  0
 293  2  0   0   0   0  0  0
 294  0  0   3  76   0  0  0
 295  0  0   4   0   0 11  0
 296  0  0   5  77   0  0  0
 297  3  0   0   0   0  0  0
 298  0  0   0   0   1  0  0
 299  0 38   0   0   2  0  0
 300  0  0   0   0   1  0  0
 301  2  0   0   0   0  0  0
 302  0  0   3  78   0  0  0
 303  0  0   4   0   0 24  0
 304  0  0   5  79   0  0  0
 305  3  0   0   0   0  0  0
 306  0  0   0   0   1  0  0
 307  0 39   0   0   2  0  0
 308  0  0   0   0   1  0  0
 309  2  0   0   0   0  0  0
 310  0  0   3  80   0  0  0
 311  0  0   4   0   0  7  0
 312  0  0   5  81   0  0  0
 313  3  0   0   0   0  0  0
 314  0  0   0   0   1  0  0
 315  0 40   0   0   2  0  0
 316  0  0   0   0   1  0  0
 317  2  0   0   0   0  0  0
 318  0  0   3  82   0  0  0
 319  0  0   4   0   0 20  0
 320  0  0   5  83   0  0  0
 321  3  0   0   0   0  0  0
 322  0  0   0   0   1  0  0
 323  0 41   0   0   2  0  0
 324  0  0   0   0   1  0  0
 325  2  0   0   0   0  0  0
 326  0  0   3  84   0  0  0
 327  0  0   4   0   0 20  0
 328  0  0   5  85   0  0  0
 329  3  0   0   0   0  0  0
 330  0  0   0   0   1  0  0
 331  0 42   0   0   2  0  0
 332  0  0   0   0   1  0  0
 333  2  0   0   0   0  0  0
 334  0  0   3  86   0  0  0
 335  0  0   4   0   0  7  0
 336  0  0   5  87   0  0  0
 337  3  0   0   0   0  0  0
[RF]
1      214.647 1 2 100 0 2.04204
2      214.715 1 2 100 0 4.08407
3      213.125 1 2 100 0 1.88496
4      208.737 1 2 100 0 1.72788
5      214.945 1 2 100 0 3.61283
6      219.393 1 2 100 0 1.25664
7      210.547 1 2 100 0 0.942478
8      223.383 1 2 100 0 2.67035
9      234.846 1 2 100 0 0.15708
10      217.003 1 2 100 0 5.96903
11      234.581 1 2 100 0 1.25664
12      247.035 1 2 100 0 4.86947
13      218.842 1 2 100 0 4.24115
14      230.927 1 2 100 0 5.65487
15      227.832 1 2 100 0 2.82743
16      206.782 1 2 100 0 2.04204
17      201.435 1 2 100 0 3.29867
18      182.246 1 2 100 0 0.314159
19      182.918 1 2 100 0 5.65487
20      175.202 1 2 100 0 0.471239
21      167.543 1 2 100 0 3.61283
22      164.805 1 2 100 0 2.51327
23      174.112 1 2 100 0 3.45575
24      178.709 1 2 100 0 0.15708
25      157.911 1 2 100 0 5.18363
26      161.694 1 2 100 0 5.96903
27      152.062 1 2 100 0 2.51327
28      144.978 1 2 100 0 1.09956
29       143.32 1 2 100 0 1.72788
30      141.484 1 2 100 0 4.39823
31      136.487 1 2 100 0 2.82743
32      146.093 1 2 100 0 3.29867
33      147.084 1 2 100 0 5.81195
34       136.66 1 2 100 0 4.08407
35      140.109 1 2 100 0 4.39823
36      134.352 1 2 100 0 0.471239
37      133.516 1 2 100 0 4.86947
38      137.633 1 2 100 0 5.02655
39      137.582 1 2 100 0 0.942478
40      133.527 1 2 100 0 5.18363
41      140.639 1 2 100 0 5.18363
42      143.344 1 2 100 0 0.942478
43      143.667 1 2 100 0 5.02655
44      148.313 1 2 100 0 4.86947
45      157.936 1 2 100 0 0.471239
46      165.027 1 2 100 0 4.39823
47      163.819 1 2 100 0 4.08407
48       179.98 1 2 100 0 5.81195
49      198.122 1 2 100 0 3.29867
50      182.193 1 2 100 0 2.82743
51      206.049 1 2 100 0 4.39823
52      225.241 1 2 100 0 1.72788
53      193.204 1 2 100 0 1.09956
54       210.21 1 2 100 0 2.51327
55       209.06 1 2 100 0 5.96903
56      181.688 1 2 100 0 5.18363
57       177.96 1 2 100 0 0.15708
58      157.454 1 2 100 0 3.45575
59      151.262 1 2 100 0 2.51327
60      144.192 1 2 100 0 3.61283
61      133.589 1 2 100 0 0.471239
62      126.857 1 2 100 0 5.65487
63       128.98 1 2 100 0 0.314159
64      126.604 1 2 100 0 3.29867
65      111.711 1 2 100 0 2.04204
66      111.355 1 2 100 0 2.82743
67      106.182 1 2 100 0 5.65487
68      98.1072 1 2 100 0 4.24115
69      98.9669 1 2 100 0 4.86947
70      98.1337 1 2 100 0 1.25664
71      92.2759 1 2 100 0 5.96903
72       96.015 1 2 100 0 0.15708
73      95.7274 1 2 100 0 2.67035
74       91.513 1 2 100 0 0.942478
75      93.6243 1 2 100 0 1.25664
76      91.4148 1 2 100 0 3.61283
77      90.4047 1 2 100 0 1.72788
78      91.9815 1 2 100 0 1.88496
79      91.1511 1 2 100 0 4.08407
80       90.232 1 2 100 0 2.04204
81      92.3785 1 2 100 0 2.04204
82      94.0543 1 2 100 0 4.08407
83      94.3607 1 2 100 0 1.88496
84      96.2862 1 2 100 0 1.72788
85      100.239 1 2 100 0 3.61283
86      103.416 1 2 100 0 1.25664
87      102.459 1 2 100 0 0.942478
88       108.03 1 2 100 0 2.67035
89      113.414 1 2 100 0 0.15708
90      108.141 1 2 100 0 5.96903
91      114.532 1 2 100 0 1.25664
92      119.097 1 2 100 0 4.86947
93      110.553 1 2 100 0 4.24115
94      114.912 1 2 100 0 5.65487
95      115.113 1 2 100 0 2.82743
96      106.889 1 2 100 0 2.04204
97      107.512 1 2 100 0 3.29867
98      103.649 1 2 100 0 0.314159
99      98.0834 1 2 100 0 5.65487
100      97.1461 1 2 100 0 0.471239
101      92.8759 1 2 100 0 3.61283
102      88.1274 1 2 100 0 2.51327
103      87.2832 1 2 100 0 3.45575
104      84.1756 1 2 100 0 0.15708
105      78.9798 1 2 100 0 5.18363
106      78.4819 1 2 100 0 5.96903
107      76.5508 1 2 100 0 2.51327
108       72.002 1 2 100 0 1.09956
109      72.4519 1 2 100 0 1.72788
110      71.6817 1 2 100 0 4.39823
111      68.4258 1 2 100 0 2.82743
112      69.5313 1 2 100 0 3.29867
113      69.0445 1 2 100 0 5.81195
114      67.3189 1 2 100 0 4.08407
115      68.2934 1 2 100 0 4.39823
116      67.6684 1 2 100 0 0.471239
117      67.1041 1 2 100 0 4.86947
118      67.8366 1 2 100 0 5.02655
119      67.6752 1 2 100 0 0.942478
120      67.7199 1 2 100 0 5.18363
121      68.4109 1 2 100 0 5.18363
122      69.3283 1 2 100 0 0.942478
123        70.01 1 2 100 0 5.02655
124      70.3668 1 2 100 0 4.86947
125      72.2789 1 2 100 0 0.471239
126      73.8959 1 2 100 0 4.39823
127      73.0383 1 2 100 0 4.08407
128      75.5238 1 2 100 0 5.81195
129      987.456 1 2 100 0 0

# Format of trapezoid gradients:
# id amplitude rise flat fall delay
# ..      Hz/m   us   us   us    us
[TRAP]
 1  -1.3125e+06 160    0 160   0
 2       400000  50 1000  50  50
 3      -557458  70  520  70   0
 4       320000  40 2000  40   0
 5       812273 100  560 100   0
 6     -7692.31  10  640  10   0
 7      6666.67  10  740  10   0
 8      7692.31  10  640  10   0
 9     -6666.67  10  740  10   0
10     -15384.6  10  640  10   0
11      13333.3  10  740  10   0
12      15384.6  10  640  10   0
13     -13333.3  10  740  10   0
14     -23076.9  10  640  10   0
15        20000  10  740  10   0
16      23076.9  10  640  10   0
17       -20000  10  740  10   0
18     -30769.2  10  640  10   0
19      26666.7  10  740  10   0
20      30769.2  10  640  10   0
21     -26666.7  10  740  10   0
22     -38461.5  10  640  10   0
23      33333.3  10  740  10   0
24      38461.5  10  640  10   0
25     -33333.3  10  740  10   0
26     -46153.8  10  640  10   0
27        40000  10  740  10   0
28      46153.8  10  640  10   0
29       -40000  10  740  10   0
30     -53846.2  10  640  10   0
31      46666.7  10  740  10   0
32      53846.2  10  640  10   0
33     -46666.7  10  740  10   0
34     -61538.5  10  640  10   0
35      53333.3  10  740  10   0
36      61538.5  10  640  10   0
37     -53333.3  10  740  10   0
38     -69230.8  10  640  10   0
39        60000  10  740  10   0
40      69230.8  10  640  10   0
41       -60000  10  740  10   0
42     -76923.1  10  640  10   0
43      66666.7  10  740  10   0
44      76923.1  10  640  10   0
45     -66666.7  10  740  10   0
46     -84615.4  10  640  10   0
47      73333.3  10  740  10   0
48      84615.4  10  640  10   0
49     -73333.3  10  740  10   0
50       -93750  20  620  20   0
51        80000  10  740  10   0
52        93750  20  620  20   0
53       -80000  10  740  10   0
54      -101562  20  620  20   0
55      87837.8  20  720  20   0
56       101562  20  620  20   0
57     -87837.8  20  720  20   0
58      -109375  20  620  20   0
59      94594.6  20  720  20   0
60       109375  20  620  20   0
61     -94594.6  20  720  20   0
62      -117187  20  620  20   0
63       101351  20  720  20   0
64       117187  20  620  20   0
65      -101351  20  720  20   0
66      -125000  20  620  20   0
67       108108  20  720  20   0
68       125000  20  620  20   0
69      -108108  20  720  20   0
70      -132812  20  620  20   0
71       114865  20  720  20   0
72       132812  20  620  20   0
73      -114865  20  720  20   0
74      -140625  20  620  20   0
75       121622  20  720  20   0
76       140625  20  620  20   0
77      -121622  20  720  20   0
78      -148438  20  620  20   0
79       128378  20  720  20   0
80       148438  20  620  20   0
81      -128378  20  720  20   0
82      -156250  20  620  20   0
83       135135  20  720  20   0
84       156250  20  620  20   0
85      -135135  20  720  20   0
86      -164062  20  620  20   0
87       141892  20  720  20   0
88       164062  20  620  20   0
89      -141892  20  720  20   0
90      -174603  30  600  30   0
91       148649  20  720  20   0
92       174603  30  600  30   0
93      -148649  20  720  20   0
94      -182540  30  600  30   0
95       155405  20  720  20   0
96       182540  30  600  30   0
97      -155405  20  720  20   0
98      -190476  30  600  30   0
99       162162  20  720  20   0
100       190476  30  600  30   0
101      -162162  20  720  20   0
102      -198413  30  600  30   0
103       168919  20  720  20   0
104       198413  30  600  30   0
105      -168919  20  720  20   0
106      -206349  30  600  30   0
107       178082  30  700  30   0
108       206349  30  600  30   0
109      -178082  30  700  30   0
110      -214286  30  600  30   0
111       184932  30  700  30   0
112       214286  30  600  30   0
113      -184932  30  700  30   0
114      -222222  30  600  30   0
115       191781  30  700  30   0
116       222222  30  600  30   0
117      -191781  30  700  30   0
118      -230159  30  600  30   0
119       198630  30  700  30   0
120       230159  30  600  30   0
121      -198630  30  700  30   0
122      -238095  30  600  30   0
123       205479  30  700  30   0
124       238095  30  600  30   0
125      -205479  30  700  30   0
126      -246032  30  600  30   0
127       212329  30  700  30   0
128       246032  30  600  30   0
129      -212329  30  700  30   0
130      -253968  30  600  30   0
131       219178  30  700  30   0
132       253968  30  600  30   0
133      -219178  30  700  30   0
134      -266129  40  580  40   0
135       226027  30  700  30   0
136       266129  40  580  40   0
137      -226027  30  700  30   0
138      -274194  40  580  40   0
139       232877  30  700  30   0
140       274194  40  580  40   0
141      -232877  30  700  30   0
142      -282258  40  580  40   0
143       239726  30  700  30   0
144       282258  40  580  40   0
145      -239726  30  700  30   0
146      -290323  40  580  40   0
147       246575  30  700  30   0
148       290323  40  580  40   0
149      -246575  30  700  30   0
150      -298387  40  580  40   0
151       253425  30  700  30   0
152       298387  40  580  40   0
153      -253425  30  700  30   0
154      -306452  40  580  40   0
155       263889  40  680  40   0
156       306452  40  580  40   0
157      -263889  40  680  40   0
158      -314516  40  580  40   0
159       270833  40  680  40   0
160       314516  40  580  40   0
161      -270833  40  680  40   0
162      -322581  40  580  40   0
163       277778  40  680  40   0
164       322581  40  580  40   0
165      -277778  40  680  40   0
166      -330645  40  580  40   0
167       284722  40  680  40   0
168       330645  40  580  40   0
169      -284722  40  680  40   0
170      -338710  40  580  40   0
171       291667  40  680  40   0
172       338710  40  580  40   0
173      -291667  40  680  40   0
174      -352459  50  560  50   0
175       298611  40  680  40   0
176       352459  50  560  50   0
177      -298611  40  680  40   0
178      -360656  50  560  50   0
179       305556  40  680  40   0
180       360656  50  560  50   0
181      -305556  40  680  40   0
182      -368852  50  560  50   0
183       312500  40  680  40   0
184       368852  50  560  50   0
185      -312500  40  680  40   0
186      -377049  50  560  50   0
187       319444  40  680  40   0
188       377049  50  560  50   0
189      -319444  40  680  40   0
190      -385246  50  560  50   0
191       326389  40  680  40   0
192       385246  50  560  50   0
193      -326389  40  680  40   0
194      -393443  50  560  50   0
195       333333  40  680  40   0
196       393443  50  560  50   0
197      -333333  40  680  40   0
198      -401639  50  560  50   0
199       340278  40  680  40   0
200       401639  50  560  50   0
201      -340278  40  680  40   0
202      -409836  50  560  50   0
203       352113  50  660  50   0
204       409836  50  560  50   0
205      -352113  50  660  50   0
206      -418033  50  560  50   0
207       359155  50  660  50   0
208       418033  50  560  50   0
209      -359155  50  660  50   0
210      -433333  60  540  60   0
211       366197  50  660  50   0
212       433333  60  540  60   0
213      -366197  50  660  50   0
214      -441667  60  540  60   0
215       373239  50  660  50   0
216       441667  60  540  60   0
217      -373239  50  660  50   0
218      -450000  60  540  60   0
219       380282  50  660  50   0
220       450000  60  540  60   0
221      -380282  50  660  50   0
222      -458333  60  540  60   0
223       387324  50  660  50   0
224       458333  60  540  60   0
225      -387324  50  660  50   0
226      -466667  60  540  60   0
227       394366  50  660  50   0
228       466667  60  540  60   0
229      -394366  50  660  50   0
230      -475000  60  540  60   0
231       401408  50  660  50   0
232       475000  60  540  60   0
233      -401408  50  660  50   0
234      -483333  60  540  60   0
235       408451  50  660  50   0
236       483333  60  540  60   0
237      -408451  50  660  50   0
238      -491667  60  540  60   0
239       415493  50  660  50   0
240       491667  60  540  60   0
241      -415493  50  660  50   0
242      -500000  60  540  60   0
243       422535  50  660  50   0
244       500000  60  540  60   0
245      -422535  50  660  50   0
246      -508333  60  540  60   0
247       435714  60  640  60   0
248       508333  60  540  60   0
249      -435714  60  640  60   0
250      -525424  70  520  70   0
251       442857  60  640  60   0
252       525424  70  520  70   0
253      -442857  60  640  60   0
254      -533898  70  520  70   0
255       450000  60  640  60   0
256       533898  70  520  70   0
257      -450000  60  640  60   0
258      -542373  70  520  70   0
259       457143  60  640  60   0
260       435374  60 2880  60   0
261       270270  40 2920  40   0

# Format of ADC events:
# id num dwell delay freq phase
# ..  ..    ns    us   Hz   rad
[ADC]
1 128 15625 40 0 2.04204
2 128 15625 40 0 4.08407
3 128 15625 40 0 1.88496
4 128 15625 40 0 1.72788
5 128 15625 40 0 3.61283
6 128 15625 40 0 1.25664
7 128 15625 40 0 0.942478
8 128 15625 40 0 2.67035
9 128 15625 40 0 0.15708
10 128 15625 40 0 5.96903
11 128 15625 40 0 4.86947
12 128 15625 40 0 4.24115
13 128 15625 40 0 5.65487
14 128 15625 40 0 2.82743
15 128 15625 40 0 3.29867
16 128 15625 40 0 0.314159
17 128 15625 40 0 0.471239
18 128 15625 40 0 2.51327
19 128 15625 40 0 3.45575
20 128 15625 40 0 5.18363
21 128 15625 40 0 1.09956
22 128 15625 40 0 4.39823
23 128 15625 40 0 5.81195
24 128 15625 40 0 5.02655

# Format of delays:
# id delay (us)
[DELAYS]
1 5000000
2 630
3 40
4 9999080
5 430
6 964700
7 80
8 960
9 10000000

# Sequence Shapes
[SHAPES]

shape_id 1
num_samples 1020
0
2e-07
3e-07
8e-07
1.2e-06
1.8e-06
2.6e-06
3.4e-06
4.3e-06
5.5e-06
6.7e-06
8e-06
9.5e-06
1.11e-05
1.28e-05
1.47e-05
1.66e-05
1.88e-05
2.09e-05
2.34e-05
2.57e-05
2.84e-05
3.11e-05
3.4e-05
3.69e-05
4e-05
4.32e-05
4.65e-05
5e-05
5.36e-05
5.73e-05
6.1e-05
6.5e-05
6.9e-05
7.31e-05
7.74e-05
8.18e-05
8.62e-05
9.08e-05
9.56e-05
0.0001002
0.0001052
0.0001102
0.0001153
0.0001204
0.0001257
0.0001311
0.0001366
0.0001421
0.0001477
0.0001534
0.0001592
0.0001651
0.000171
0.000177
0.0001831
0.0001893
0.0001955
0.0002017
0.000208
0.0002145
0.0002208
0.0002274
0.0002338
0.0002404
0.000247
0.0002537
0.0002603
0.000267
0.0002737
0.0002804
0.0002872
0.0002939
0.0003007
0.0003074
0.0003143
0.000321
0.0003277
0.0003345
0.0003412
0.0003479
0.0003547
0.0003612
0.0003679
0.0003745
0.000381
0.0003875
0.0003939
0.0004003
0.0004067
0.0004129
0.0004191
0.0004253
0.0004312
0.0004373
0.0004431
0.0004489
0.0004546
0.0004601
0.0004656
0.000471
0.0004763
0.0004813
0.0004864
0.0004912
0.000496
0.0005005
0.000505
0.0005093
0.0005135
0.0005174
0.0005213
0.0005249
0.0005283
0.0005317
0.0005348
0.0005377
0.0005405
0.0005429
0.0005453
0.0005475
0.0005493
0.000551
0.0005525
0.0005537
0.0005548
0.0005555
0.000556
0.0005564
0.0005564
0
0.0005561
0.0005557
0.0005549
0.000554
0.0005526
0.0005511
0.0005493
0.0005472
0.0005447
0.000542
0.0005391
0.0005357
0.0005321
0.0005282
0.000524
0.0005194
0.0005146
0.0005093
0.0005039
0.000498
0.0004918
0.0004852
0.0004784
0.0004712
0.0004637
0.0004557
0.0004474
0.0004388
0.0004298
0.0004205
0.0004107
0.0004007
0.0003902
0.0003793
0.0003682
0.0003565
0.0003446
0.0003322
0.0003195
0.0003063
0.0002929
0.0002789
0.0002646
0.0002499
0.0002348
0.0002194
0.0002034
0.0001872
0.0001704
0.0001534
0.0001358
0.000118
9.97e-05
8.09e-05
6.18e-05
4.23e-05
2.24e-05
2.1e-06
-1.87e-05
-3.99e-05
-6.14e-05
-8.33e-05
-0.0001057
-0.0001285
-0.0001517
-0.0001753
-0.0001992
-0.0002236
-0.0002484
-0.0002735
-0.0002992
-0.0003251
-0.0003515
-0.0003782
-0.0004054
-0.000433
-0.0004609
-0.0004892
-0.0005179
-0.0005469
-0.0005765
-0.0006062
-0.0006365
-0.000667
-0.000698
-0.0007293
-0.0007609
-0.000793
-0.0008253
-0.000858
-0.0008911
-0.0009246
-0.0009582
-0.0009924
-0.0010267
-0.0010615
-0.0010966
-0.0011319
-0.0011676
-0.0012036
-0.0012399
-0.0012765
-0.0013133
-0.0013505
-0.001388
-0.0014257
-0.0014637
-0.0015019
-0.0015405
-0.0015792
-0.0016183
-0.0016575
-0.001697
-0.0017367
-0.0017767
-0.0018168
-0.0018572
-0.0018977
-0.0019385
-0.0019795
0.0020206
0.0020619
0.0021034
0.002145
0.0021868
0.0022287
0.0022708
0.002313
0.0023553
0.0023977
0.0024403
0.002483
0.0025256
0.0025685
0.0026113
0.0026544
0.0026973
0.0027404
0.0027834
0.0028267
0.0028697
0.002913
0.0029561
0.0029994
0.0030425
0.0030856
0.0031288
0.0031718
0.0032149
0.0032578
0.0033008
0.0033437
0.0033864
0.003429
0.0034717
0.0035141
0.0035564
0.0035987
0.0036407
0.0036827
0.0037244
0.003766
0.0038075
0.0038487
0.0038898
0.0039306
0.0039712
0.0040117
0.0040518
0.0040918
0.0041315
0.0041709
0.0042101
0.0042489
0.0042875
0.0043259
0.0043638
0.0044015
0.0044388
0.0044759
0.0045125
0.0045488
0.0045848
0.0046203
0.0046556
0.0046903
0.0047248
0.0047588
0.0047923
0.0048255
0.0048582
0.0048905
0.0049223
0.0049537
0.0049846
0.005015
0.0050449
0.0050744
0.0051032
0.0051317
0.0051596
0.0051869
0.0052138
0.0052401
0.0052657
0.005291
0.0053156
0.0053395
0.005363
0.0053859
0.0054081
0.0054298
0.0054507
0.0054712
0.005491
0.0055101
0.0055287
0.0055464
0.0055637
0.0055802
0.0055961
0.0056113
0.0056259
0.0056396
0.0056528
0.0056652
0.005677
0.005688
0.0056984
0.0057079
0.0057168
0.005725
0.0057324
0.005739
0.005745
0.0057501
0.0057546
0.0057583
0.0057611
0.0057633
0.0057647
0.0057653
0.0057651
0.0057642
0.0057625
0.0057599
0.0057566
0.0057526
0.0057476
0.005742
0.0057355
0.0057283
0.0057201
0.0057113
0.0057016
0.0056911
0.0056798
0.0056677
0.0056548
0.005641
0.0056266
0.0056111
0.005595
0.0055781
0.0055603
0.0055416
0.0055223
0.0055021
0.005481
0.0054592
0.0054366
0.0054131
0.0053889
0.0053638
0.0053379
0.0053113
0.0052839
0.0052556
0.0052266
0.0051967
0.0051661
0.0051347
0.0051026
0.0050695
0.0050358
0.0050013
0.0049661
0.00493
0.0048931
0.0048557
0.0048173
0.0047782
0.0047385
0.0046979
0.0046566
0.0046147
0.0045719
0.0045285
0.0044844
0.0044395
0.0043939
0.0043477
0.0043008
0.0042532
0.0042049
0.0041559
0.0041063
0.0040561
0.0040051
0.0039536
0.0039014
0.0038487
0.0037952
0.0037411
0.0036866
0.0036313
0.0035755
0.0035191
0.0034622
0.0034046
0.0033466
0.003288
0.0032289
0.0031692
0.0031091
0.0030483
0.0029872
0.0029255
0.0028634
0.0028008
0.0027378
0.0026742
0.0026103
0.0025459
0.0024812
0.0024159
0.0023504
0.0022844
0.002218
0.0021513
0.0020843
0.0020168
0.0019491
0.0018811
0.0018127
0.001744
0.001675
0.0016059
0.0015363
0.0014665
0.0013966
0.0013264
0.0012559
0.0011852
0.0011144
0.0010434
0.0009722
0.0009008
0.0008293
0.0007576
0.0006859
0.000614
0.000542
0.0004699
0.0003977
0.0003255
0.0002532
0.000181
0.0001085
3.62e-05
-3.62e-05
-0.0001085
-0.000181
-0.0002532
-0.0003255
-0.0003977
-0.0004699
-0.000542
-0.000614
-0.0006859
-0.0007576
-0.0008293
-0.0009008
-0.0009722
-0.0010434
-0.0011144
-0.0011852
-0.0012559
-0.0013264
-0.0013966
-0.0014665
-0.0015363
-0.0016059
-0.001675
-0.001744
-0.0018127
-0.0018811
-0.0019491
-0.0020168
-0.0020843
-0.0021513
-0.002218
-0.0022844
-0.0023504
-0.0024159
-0.0024812
-0.0025459
-0.0026103
-0.0026742
-0.0027378
-0.0028008
-0.0028634
-0.0029255
-0.0029872
-0.0030483
-0.0031091
-0.0031692
-0.0032289
-0.003288
-0.0033466
-0.0034046
-0.0034622
-0.0035191
-0.0035755
-0.0036313
-0.0036866
-0.0037411
-0.0037952
-0.0038487
-0.0039014
-0.0039536
-0.0040051
-0.0040561
-0.0041063
-0.0041559
-0.0042049
-0.0042532
-0.0043008
-0.0043477
-0.0043939
-0.0044395
-0.0044844
-0.0045285
-0.0045719
-0.0046147
-0.0046566
-0.0046979
-0.0047385
-0.0047782
-0.0048173
